time,signal
0.000000000000000000e+00,-1.851318696955166990e-03
1.000000000000000021e-03,1.006045765510146017e+00
2.000000000000000042e-03,3.372034014599108454e-01
3.000000000000000062e-03,-3.976776611121125016e-01
4.000000000000000083e-03,9.406441067580004201e-02
5.000000000000000104e-03,1.449067259997517954e-01
6.000000000000000125e-03,1.224095686856816606e-01
7.000000000000000146e-03,9.707981597364793991e-02
8.000000000000000167e-03,5.024246274838223281e-02
9.000000000000001055e-03,5.305012627955842802e-02
1.000000000000000021e-02,5.849741559807977720e-02
1.099999999999999936e-02,3.317729558280015090e-02
1.200000000000000025e-02,-2.279559715888518356e-02
1.300000000000000114e-02,-2.301029134821973993e-02
1.400000000000000029e-02,-1.134006886484070775e-02
1.499999999999999944e-02,-2.773458495993039175e-02
1.600000000000000033e-02,-2.851485986509037784e-02
1.700000000000000122e-02,-5.370754419077430897e-03
1.800000000000000211e-02,3.309218245761896826e-02
1.899999999999999953e-02,5.355782265850085599e-02
2.000000000000000042e-02,8.468370893989979331e-02
2.100000000000000130e-02,1.224006504176261001e-01
2.199999999999999872e-02,1.464822450134384835e-01
2.299999999999999961e-02,1.519053585182946198e-01
2.400000000000000050e-02,2.065153004844372253e-01
2.500000000000000139e-02,2.039029315596056768e-01
2.600000000000000228e-02,1.748314498130106309e-01
2.699999999999999969e-02,1.675313951337338847e-01
2.800000000000000058e-02,1.807967885899815497e-01
2.900000000000000147e-02,1.439597134858367211e-01
2.999999999999999889e-02,1.444230858783104587e-01
3.099999999999999978e-02,1.387857352479035244e-01
3.200000000000000067e-02,1.189170446990577001e-01
3.300000000000000155e-02,7.827599022660795824e-02
3.400000000000000244e-02,1.479584358988715598e-02
3.500000000000000333e-02,2.723402040347069897e-02
3.600000000000000422e-02,5.651761492141300913e-02
3.699999999999999817e-02,5.061097017213021798e-02
3.799999999999999906e-02,1.046730404883197962e-01
3.899999999999999994e-02,1.129188813526273705e-01
4.000000000000000083e-02,1.383990359816562044e-01
4.100000000000000172e-02,1.628356785593185196e-01
4.200000000000000261e-02,2.019150309253506803e-01
4.300000000000000350e-02,2.622332085188511241e-01
4.399999999999999745e-02,3.323570932884072904e-01
4.499999999999999833e-02,2.720448972805488141e-01
4.599999999999999922e-02,2.500559052478031896e-01
4.700000000000000011e-02,2.812629953803290062e-01
4.800000000000000100e-02,2.577047355041874321e-01
4.900000000000000189e-02,2.462956858321757314e-01
5.000000000000000278e-02,1.598274079031613282e-01
5.100000000000000366e-02,1.613532912291785193e-01
5.200000000000000455e-02,1.283195361326352479e-01
5.299999999999999850e-02,1.369690568211833770e-01
5.399999999999999939e-02,9.078457720392016372e-02
5.500000000000000028e-02,8.725581188323955351e-02
5.600000000000000117e-02,1.039345620101414097e-01
5.700000000000000205e-02,1.455428424980042545e-01
5.800000000000000294e-02,1.532917225244039838e-01
5.900000000000000383e-02,2.262724197584607966e-01
5.999999999999999778e-02,2.242068045230903861e-01
6.099999999999999867e-02,2.750203160948422321e-01
6.199999999999999956e-02,3.031660751068389059e-01
6.300000000000000044e-02,3.080547595925202109e-01
6.400000000000000133e-02,3.665700279054802113e-01
6.500000000000000222e-02,3.563699785352624216e-01
6.600000000000000311e-02,3.555669718843498250e-01
6.700000000000000400e-02,3.132963923935618289e-01
6.800000000000000488e-02,3.005581541898122988e-01
6.900000000000000577e-02,2.877419658803438973e-01
7.000000000000000666e-02,2.897515450287314609e-01
7.100000000000000755e-02,2.812407244800935180e-01
7.200000000000000844e-02,1.777716672715773938e-01
7.299999999999999545e-02,1.939581782857770498e-01
7.399999999999999634e-02,1.774946645760577812e-01
7.499999999999999722e-02,1.859584846760479471e-01
7.599999999999999811e-02,2.137117279552960269e-01
7.699999999999999900e-02,2.292159938255187712e-01
7.799999999999999989e-02,2.337303597076069439e-01
7.900000000000000078e-02,2.497880749884395235e-01
8.000000000000000167e-02,3.139084480544085398e-01
8.100000000000000255e-02,3.439381910331258396e-01
8.200000000000000344e-02,3.695621202025604068e-01
8.300000000000000433e-02,3.830812003104728247e-01
8.400000000000000522e-02,4.030943093979648673e-01
8.500000000000000611e-02,4.345719104829104396e-01
8.600000000000000699e-02,3.762627710191902008e-01
8.700000000000000788e-02,4.273725781321409123e-01
8.799999999999999489e-02,3.855262650460598017e-01
8.899999999999999578e-02,3.659375672838220961e-01
8.999999999999999667e-02,3.436553653561695842e-01
9.099999999999999756e-02,3.175618530854348309e-01
9.199999999999999845e-02,2.422272808130404853e-01
9.299999999999999933e-02,2.819209165948871609e-01
9.400000000000000022e-02,2.407773154265452353e-01
9.500000000000000111e-02,2.591331060117169072e-01
9.600000000000000200e-02,2.347910820885178440e-01
9.700000000000000289e-02,2.940274643978481039e-01
9.800000000000000377e-02,2.853951703409051133e-01
9.900000000000000466e-02,3.100048932300228377e-01
1.000000000000000056e-01,3.694338037520504825e-01
1.010000000000000064e-01,4.443281177614918365e-01
1.020000000000000073e-01,4.206632882013314756e-01
1.030000000000000082e-01,5.049791714734932491e-01
1.040000000000000091e-01,5.033294760113400379e-01
1.049999999999999961e-01,4.835341167535084361e-01
1.059999999999999970e-01,4.810673444944220667e-01
1.069999999999999979e-01,4.613013546050919733e-01
1.079999999999999988e-01,4.227850240685291361e-01
1.089999999999999997e-01,4.446313554488392494e-01
1.100000000000000006e-01,3.725601739511903987e-01
1.110000000000000014e-01,4.207870618677506114e-01
1.120000000000000023e-01,3.205775847353476982e-01
1.130000000000000032e-01,3.067632933546671770e-01
1.140000000000000041e-01,2.913982099714022000e-01
1.150000000000000050e-01,2.808836717122116244e-01
1.160000000000000059e-01,3.109309675186501254e-01
1.170000000000000068e-01,3.480785014208540584e-01
1.180000000000000077e-01,3.427791142497194632e-01
1.190000000000000085e-01,3.953237606059016862e-01
1.199999999999999956e-01,4.443271750799906439e-01
1.209999999999999964e-01,4.746058860003742330e-01
1.219999999999999973e-01,4.706172858492093658e-01
1.229999999999999982e-01,5.185629477806238397e-01
1.239999999999999991e-01,5.004750862036715375e-01
1.250000000000000000e-01,5.407040368549750342e-01
1.260000000000000009e-01,5.688575705488773115e-01
1.270000000000000018e-01,5.123829156314492206e-01
1.280000000000000027e-01,5.046628747889708722e-01
1.290000000000000036e-01,4.641274084498080432e-01
1.300000000000000044e-01,4.265979476643761981e-01
1.310000000000000053e-01,3.695021690421887994e-01
1.320000000000000062e-01,3.857635537752626687e-01
1.330000000000000071e-01,3.447362341086900872e-01
1.340000000000000080e-01,3.215194167000268166e-01
1.350000000000000089e-01,3.615245475642374640e-01
1.360000000000000098e-01,3.946254137404714424e-01
1.370000000000000107e-01,3.838781640951787200e-01
1.380000000000000115e-01,3.698816171648260931e-01
1.390000000000000124e-01,4.051851506079253706e-01
1.400000000000000133e-01,4.745885807295041059e-01
1.410000000000000142e-01,4.417024287434966334e-01
1.420000000000000151e-01,5.486786630006945664e-01
1.430000000000000160e-01,5.516459299157628893e-01
1.440000000000000169e-01,5.659468152391566864e-01
1.449999999999999900e-01,5.672530254029684027e-01
1.459999999999999909e-01,5.504427192075082020e-01
1.469999999999999918e-01,5.168334754147171362e-01
1.479999999999999927e-01,5.261188744419901253e-01
1.489999999999999936e-01,4.729217857839183581e-01
1.499999999999999944e-01,4.978830332866792663e-01
1.509999999999999953e-01,4.421880197817838476e-01
1.519999999999999962e-01,4.276009928936307380e-01
1.529999999999999971e-01,3.701378811514775546e-01
1.539999999999999980e-01,3.828559801960303433e-01
1.549999999999999989e-01,3.474389863896536479e-01
1.559999999999999998e-01,3.921425172203309995e-01
1.570000000000000007e-01,3.985783394011562786e-01
1.580000000000000016e-01,4.197396975111209461e-01
1.590000000000000024e-01,4.810323209709773673e-01
1.600000000000000033e-01,4.393237174497521269e-01
1.610000000000000042e-01,5.291251748690959378e-01
1.620000000000000051e-01,5.704422481760139663e-01
1.630000000000000060e-01,5.525137245060498525e-01
1.640000000000000069e-01,6.249465943716328020e-01
1.650000000000000078e-01,5.983082354761550814e-01
1.660000000000000087e-01,5.804155951042172523e-01
1.670000000000000095e-01,5.921988732567138314e-01
1.680000000000000104e-01,5.801238671264313806e-01
1.690000000000000113e-01,5.145436727779258979e-01
1.700000000000000122e-01,4.797234870327123923e-01
1.710000000000000131e-01,4.737761681989551277e-01
1.720000000000000140e-01,4.551521954526344671e-01
1.730000000000000149e-01,4.518788536899025488e-01
1.740000000000000158e-01,3.846784492709148795e-01
1.750000000000000167e-01,3.855734901639389367e-01
1.759999999999999898e-01,3.918851483226432064e-01
1.769999999999999907e-01,4.181836394230477039e-01
1.779999999999999916e-01,4.630559382802913460e-01
1.789999999999999925e-01,4.628236354891156479e-01
1.799999999999999933e-01,5.046037109488301642e-01
1.809999999999999942e-01,5.096646647958366083e-01
1.819999999999999951e-01,5.519052235763421965e-01
1.829999999999999960e-01,5.840143241247531813e-01
1.839999999999999969e-01,6.118599353437239596e-01
1.849999999999999978e-01,5.945144913304346579e-01
1.859999999999999987e-01,6.415789029273616384e-01
1.869999999999999996e-01,5.693977134624710335e-01
1.880000000000000004e-01,5.816440574587147250e-01
1.890000000000000013e-01,5.178231444656877791e-01
1.900000000000000022e-01,5.065926296911194004e-01
1.910000000000000031e-01,4.277748440336838764e-01
1.920000000000000040e-01,4.276826115756005575e-01
1.930000000000000049e-01,3.819841370029037897e-01
1.940000000000000058e-01,4.268654882247942539e-01
1.950000000000000067e-01,4.095796925664767496e-01
1.960000000000000075e-01,4.060964342501415247e-01
1.970000000000000084e-01,4.255494810146811524e-01
1.980000000000000093e-01,4.615641322755769105e-01
1.990000000000000102e-01,4.962886121968815289e-01
2.000000000000000111e-01,4.937220084141384913e-01
2.010000000000000120e-01,5.249945916342726449e-01
2.020000000000000129e-01,5.446410233667098311e-01
2.030000000000000138e-01,5.808603511848744461e-01
2.040000000000000147e-01,6.087298103346696632e-01
2.050000000000000155e-01,5.809007385015462210e-01
2.060000000000000164e-01,5.838263562944803198e-01
2.070000000000000173e-01,5.920880691594198053e-01
2.080000000000000182e-01,5.726596893780484532e-01
2.089999999999999913e-01,5.217005530504922328e-01
2.099999999999999922e-01,5.123897636158754043e-01
2.109999999999999931e-01,4.751991176998813238e-01
2.119999999999999940e-01,4.289342988672130152e-01
2.129999999999999949e-01,3.980045079893423932e-01
2.139999999999999958e-01,3.873977161210267472e-01
2.149999999999999967e-01,3.954605459240680965e-01
2.159999999999999976e-01,3.841993664750170678e-01
2.169999999999999984e-01,3.873896162882922156e-01
2.179999999999999993e-01,4.147285906156764068e-01
2.190000000000000002e-01,4.431880360089259785e-01
2.200000000000000011e-01,4.961635688858552218e-01
2.210000000000000020e-01,5.160668446649893104e-01
2.220000000000000029e-01,5.342262651734418499e-01
2.230000000000000038e-01,5.563267840805656839e-01
2.240000000000000047e-01,5.846578194835999609e-01
2.250000000000000056e-01,6.137227912211145053e-01
2.260000000000000064e-01,5.487806404806065963e-01
2.270000000000000073e-01,5.773198202396109258e-01
2.280000000000000082e-01,5.151672487030528602e-01
2.290000000000000091e-01,5.356618427478242461e-01
2.300000000000000100e-01,4.670103692034406895e-01
2.310000000000000109e-01,4.357863539885387660e-01
2.320000000000000118e-01,3.874231327178881967e-01
2.330000000000000127e-01,4.220204849662526625e-01
2.340000000000000135e-01,3.532285955415042644e-01
2.350000000000000144e-01,3.366230525468759671e-01
2.360000000000000153e-01,3.382787026088932003e-01
2.370000000000000162e-01,4.193534528897284730e-01
2.380000000000000171e-01,3.994308899773995614e-01
2.390000000000000180e-01,4.182368748831449268e-01
2.399999999999999911e-01,4.514919304273624645e-01
2.409999999999999920e-01,4.982141066143207508e-01
2.419999999999999929e-01,5.015457829240022036e-01
2.429999999999999938e-01,5.391218642285467988e-01
2.439999999999999947e-01,5.586782091963989894e-01
2.449999999999999956e-01,5.717108855603565409e-01
2.459999999999999964e-01,5.533798287472251332e-01
2.469999999999999973e-01,5.327669144520744693e-01
2.479999999999999982e-01,5.247484524690044783e-01
2.489999999999999991e-01,4.927987541272776939e-01
2.500000000000000000e-01,4.444122247404290182e-01
2.510000000000000009e-01,4.212238640102360376e-01
2.520000000000000018e-01,3.704981918462405543e-01
2.530000000000000027e-01,3.490033659880878436e-01
2.540000000000000036e-01,3.697003984595358395e-01
2.550000000000000044e-01,3.312684531836007640e-01
2.560000000000000053e-01,3.292237158777717165e-01
2.570000000000000062e-01,3.580610396158993014e-01
2.580000000000000071e-01,3.910138219109039470e-01
2.590000000000000080e-01,4.054595010144648737e-01
2.600000000000000089e-01,4.705697313736183496e-01
2.610000000000000098e-01,4.749155028876597129e-01
2.620000000000000107e-01,4.906460729185423419e-01
2.630000000000000115e-01,4.742760601247332231e-01
2.640000000000000124e-01,5.285363907831963637e-01
2.650000000000000133e-01,5.300864111842140680e-01
2.660000000000000142e-01,4.905905015959601823e-01
2.670000000000000151e-01,4.852116055678062367e-01
2.680000000000000160e-01,4.445787668383849311e-01
2.690000000000000169e-01,4.330198134779700281e-01
2.700000000000000178e-01,4.081203488482080255e-01
2.710000000000000187e-01,3.636802566551760041e-01
2.720000000000000195e-01,3.421943468444620384e-01
2.730000000000000204e-01,2.860574391852857556e-01
2.740000000000000213e-01,3.032495237153453038e-01
2.750000000000000222e-01,2.876246820501031642e-01
2.760000000000000231e-01,3.059652180456203241e-01
2.770000000000000240e-01,2.644558660749069534e-01
2.780000000000000249e-01,3.338492282956737611e-01
2.790000000000000258e-01,3.665887563029106011e-01
2.800000000000000266e-01,3.452721630090053173e-01
2.810000000000000275e-01,4.002538326196598550e-01
2.820000000000000284e-01,4.132560991907204828e-01
2.830000000000000293e-01,4.340299367317433377e-01
2.840000000000000302e-01,4.884631176722690205e-01
2.850000000000000311e-01,4.539297474178799474e-01
2.860000000000000320e-01,4.394939996059682996e-01
2.870000000000000329e-01,4.262859925343110978e-01
2.880000000000000338e-01,4.052210127411834950e-01
2.889999999999999791e-01,3.519124699123900579e-01
2.899999999999999800e-01,3.345218370087634230e-01
2.909999999999999809e-01,3.361228594937815117e-01
2.919999999999999818e-01,2.638990571609918234e-01
2.929999999999999827e-01,2.519486907392305408e-01
2.939999999999999836e-01,2.083286118545423227e-01
2.949999999999999845e-01,2.606016831138583401e-01
2.959999999999999853e-01,2.533942532466033071e-01
2.969999999999999862e-01,2.335601092936331891e-01
2.979999999999999871e-01,2.861960498232957728e-01
2.989999999999999880e-01,2.964664522153751536e-01
2.999999999999999889e-01,3.447517725126565957e-01
3.009999999999999898e-01,3.524059554096740654e-01
3.019999999999999907e-01,3.934902102655948308e-01
3.029999999999999916e-01,4.084862728408195642e-01
3.039999999999999925e-01,4.159967551539071051e-01
3.049999999999999933e-01,4.213806618967201878e-01
3.059999999999999942e-01,4.214482053409350781e-01
3.069999999999999951e-01,4.043429496374550958e-01
3.079999999999999960e-01,3.551537221001648259e-01
3.089999999999999969e-01,3.138474625363495418e-01
3.099999999999999978e-01,2.873525325444677425e-01
3.109999999999999987e-01,2.724360590482221012e-01
3.119999999999999996e-01,2.444814892006730023e-01
3.130000000000000004e-01,1.815601796190818296e-01
3.140000000000000013e-01,1.630097092507922230e-01
3.150000000000000022e-01,1.431133286976650765e-01
3.160000000000000031e-01,1.632407385278534517e-01
3.170000000000000040e-01,1.655722953318050361e-01
3.180000000000000049e-01,1.892749252484887679e-01
3.190000000000000058e-01,2.083979999849186471e-01
3.200000000000000067e-01,2.225383920862448184e-01
3.210000000000000075e-01,2.540245610259700415e-01
3.220000000000000084e-01,2.921859477186795617e-01
3.230000000000000093e-01,2.998050554172219107e-01
3.240000000000000102e-01,3.442317821691051050e-01
3.250000000000000111e-01,3.402361789131940206e-01
3.260000000000000120e-01,3.287262129450609915e-01
3.270000000000000129e-01,3.217300002755968391e-01
3.280000000000000138e-01,2.832762770505951599e-01
3.290000000000000147e-01,2.278132729690488523e-01
3.300000000000000155e-01,2.117723309184978697e-01
3.310000000000000164e-01,1.467480452695408832e-01
3.320000000000000173e-01,1.592129315916550880e-01
3.330000000000000182e-01,1.260655110369883758e-01
3.340000000000000191e-01,7.124511772378960828e-02
3.350000000000000200e-01,1.297607070104488947e-01
3.360000000000000209e-01,1.312551682482046567e-01
3.370000000000000218e-01,1.135903736460491115e-01
3.380000000000000226e-01,1.156662250675903475e-01
3.390000000000000235e-01,1.540902398020874142e-01
3.400000000000000244e-01,1.423483133065438777e-01
3.410000000000000253e-01,2.194839894882917031e-01
3.420000000000000262e-01,2.380095631676542312e-01
3.430000000000000271e-01,2.720076113392353445e-01
3.440000000000000280e-01,2.540602451446917209e-01
3.450000000000000289e-01,2.332036287044987610e-01
3.460000000000000298e-01,2.438748604828060162e-01
3.470000000000000306e-01,2.346255202344436630e-01
3.480000000000000315e-01,2.243560900209465303e-01
3.490000000000000324e-01,1.489134142179181219e-01
3.500000000000000333e-01,1.110656315909638592e-01
3.510000000000000342e-01,1.328360648091348739e-01
3.519999999999999796e-01,5.959872308400789714e-02
3.529999999999999805e-01,7.666845250660081490e-02
3.539999999999999813e-01,2.707690135484774885e-02
3.549999999999999822e-01,-1.845527305051053446e-03
3.559999999999999831e-01,1.233650072437759981e-02
3.569999999999999840e-01,5.265312766286281421e-02
3.579999999999999849e-01,2.741389707648101554e-02
3.589999999999999858e-01,8.928535149192459719e-02
3.599999999999999867e-01,8.804263207137562330e-02
3.609999999999999876e-01,1.060820435777486692e-01
3.619999999999999885e-01,1.562442837693093778e-01
3.629999999999999893e-01,1.752965233278225843e-01
3.639999999999999902e-01,1.568432530391172530e-01
3.649999999999999911e-01,1.794285662738848153e-01
3.659999999999999920e-01,1.843040915086567033e-01
3.669999999999999929e-01,1.491044074103046457e-01
3.679999999999999938e-01,1.206759311042492205e-01
3.689999999999999947e-01,9.044997019097236746e-02
3.699999999999999956e-01,5.573635192673836308e-02
3.709999999999999964e-01,3.621546517473721305e-02
3.719999999999999973e-01,-4.143087920356836040e-02
3.729999999999999982e-01,-7.622512018511018450e-02
3.739999999999999991e-01,-6.288625297561550864e-02
3.750000000000000000e-01,-8.135960672192558973e-02
3.760000000000000009e-01,-5.177589063788221729e-02
3.770000000000000018e-01,-7.004361276490546351e-02
3.780000000000000027e-01,-2.559030412326050719e-02
3.790000000000000036e-01,-2.792221171724564022e-02
3.800000000000000044e-01,9.975184502616986013e-03
3.810000000000000053e-01,1.881076834564831407e-02
3.820000000000000062e-01,3.600797410632490536e-02
3.830000000000000071e-01,6.702413425460673757e-02
3.840000000000000080e-01,1.094564644028094003e-01
3.850000000000000089e-01,1.292603524554914451e-01
3.860000000000000098e-01,8.028973342333949048e-02
3.870000000000000107e-01,6.112850641133536073e-02
3.880000000000000115e-01,5.955929182961176849e-02
3.890000000000000124e-01,3.415587398752314985e-02
3.900000000000000133e-01,-4.077086279380998796e-02
3.910000000000000142e-01,-2.456335382389361263e-02
3.920000000000000151e-01,-1.165790649438448456e-01
3.930000000000000160e-01,-1.406219821106879375e-01
3.940000000000000169e-01,-8.552957091761384523e-02
3.950000000000000178e-01,-1.536456187685993346e-01
3.960000000000000187e-01,-1.474582468018395542e-01
3.970000000000000195e-01,-1.097420794596840332e-01
3.980000000000000204e-01,-7.838554305080350226e-02
3.990000000000000213e-01,-9.250207144692694505e-02
4.000000000000000222e-01,-7.898102552871801019e-02
4.010000000000000231e-01,-3.049658665191325169e-02
4.020000000000000240e-01,-4.628121125705784294e-02
4.030000000000000249e-01,1.993892934849195164e-03
4.040000000000000258e-01,2.796279573923624029e-02
4.050000000000000266e-01,3.475801987179796826e-02
4.060000000000000275e-01,-8.550341944347103484e-03
4.070000000000000284e-01,-2.743565826661281681e-02
4.080000000000000293e-01,-6.730091506924809619e-02
4.090000000000000302e-01,-4.081644552614279581e-02
4.100000000000000311e-01,-9.983725579317688503e-02
4.110000000000000320e-01,-1.298127789011166155e-01
4.120000000000000329e-01,-1.663761270264267067e-01
4.130000000000000338e-01,-2.036159685370965144e-01
4.140000000000000346e-01,-2.457027028860584439e-01
4.150000000000000355e-01,-2.055674285980620131e-01
4.160000000000000364e-01,-2.421861957460308412e-01
4.169999999999999818e-01,-2.121250216368684438e-01
4.179999999999999827e-01,-1.981972203943370148e-01
4.189999999999999836e-01,-1.664742275187010567e-01
4.199999999999999845e-01,-1.119246253623545351e-01
4.209999999999999853e-01,-9.868879591280996233e-02
4.219999999999999862e-01,-1.013400486710576975e-01
4.229999999999999871e-01,-9.409316944865775412e-02
4.239999999999999880e-01,-2.220145399640104100e-02
4.249999999999999889e-01,-9.981763579283889354e-02
4.259999999999999898e-01,-1.936639632536439615e-02
4.269999999999999907e-01,-6.655311457877412240e-02
4.279999999999999916e-01,-9.103119915122687145e-02
4.289999999999999925e-01,-1.468660366082882307e-01
4.299999999999999933e-01,-1.769204502216036590e-01
4.309999999999999942e-01,-2.247203497008029849e-01
4.319999999999999951e-01,-2.242643434447781914e-01
4.329999999999999960e-01,-2.849867768837227588e-01
4.339999999999999969e-01,-2.923424890888135508e-01
4.349999999999999978e-01,-3.044445687336729267e-01
4.359999999999999987e-01,-3.200739038273957560e-01
4.369999999999999996e-01,-2.606776403829728084e-01
4.380000000000000004e-01,-2.640599941077033108e-01
4.390000000000000013e-01,-2.639955796751032868e-01
4.400000000000000022e-01,-2.307717941662816019e-01
4.410000000000000031e-01,-1.670199858517466274e-01
4.420000000000000040e-01,-1.388664139192106184e-01
4.430000000000000049e-01,-1.264429842062093634e-01
4.440000000000000058e-01,-1.801965453249513294e-01
4.450000000000000067e-01,-1.241340128441540125e-01
4.460000000000000075e-01,-1.183196404355150028e-01
4.470000000000000084e-01,-1.609894159562983984e-01
4.480000000000000093e-01,-1.745639202924827438e-01
4.490000000000000102e-01,-2.017997878498016817e-01
4.500000000000000111e-01,-2.661942125966195727e-01
4.510000000000000120e-01,-2.911090690986470331e-01
4.520000000000000129e-01,-3.372002266590763964e-01
4.530000000000000138e-01,-3.830584765393497682e-01
4.540000000000000147e-01,-3.262790054500656067e-01
4.550000000000000155e-01,-3.672817057602507651e-01
4.560000000000000164e-01,-3.657676171925482445e-01
4.570000000000000173e-01,-3.292981697949084463e-01
4.580000000000000182e-01,-2.728729663626796587e-01
4.590000000000000191e-01,-3.091189076860806906e-01
4.600000000000000200e-01,-2.675356834750979296e-01
4.610000000000000209e-01,-2.517957255430025576e-01
4.620000000000000218e-01,-2.448611507471919468e-01
4.630000000000000226e-01,-2.068566636644557644e-01
4.640000000000000235e-01,-1.964029087548115338e-01
4.650000000000000244e-01,-2.337992991482364669e-01
4.660000000000000253e-01,-1.927382045688834922e-01
4.670000000000000262e-01,-2.419735682750546735e-01
4.680000000000000271e-01,-2.556075866083449277e-01
4.690000000000000280e-01,-2.772653356915604217e-01
4.700000000000000289e-01,-3.274613500846821901e-01
4.710000000000000298e-01,-3.164713467829191051e-01
4.720000000000000306e-01,-4.114900312963178375e-01
4.730000000000000315e-01,-4.111775006406861444e-01
4.740000000000000324e-01,-4.301573775430989066e-01
4.750000000000000333e-01,-4.186606896134155154e-01
4.760000000000000342e-01,-4.260879529666678489e-01
4.770000000000000351e-01,-4.211537246297616943e-01
4.780000000000000360e-01,-4.266484985053231593e-01
4.790000000000000369e-01,-3.585260697424828558e-01
4.799999999999999822e-01,-3.299726149834527056e-01
4.809999999999999831e-01,-3.243396574617559702e-01
4.819999999999999840e-01,-3.030569973356790903e-01
4.829999999999999849e-01,-3.141879660471611491e-01
4.839999999999999858e-01,-3.000118369519511607e-01
4.849999999999999867e-01,-2.827777949260763535e-01
4.859999999999999876e-01,-2.916965759095069832e-01
4.869999999999999885e-01,-2.757820584377288498e-01
4.879999999999999893e-01,-3.349329307510793829e-01
4.889999999999999902e-01,-3.381156081530546365e-01
4.899999999999999911e-01,-3.795817910334584044e-01
4.909999999999999920e-01,-4.367459178643138817e-01
4.919999999999999929e-01,-4.629849599461041687e-01
4.929999999999999938e-01,-4.821109017801256114e-01
4.939999999999999947e-01,-4.750454420573138048e-01
4.949999999999999956e-01,-4.853154689752645634e-01
4.959999999999999964e-01,-4.816021311261072801e-01
4.969999999999999973e-01,-4.781924827390313104e-01
4.979999999999999982e-01,-4.373521683086915024e-01
4.989999999999999991e-01,-4.317426731439161225e-01
5.000000000000000000e-01,-4.167536778990176827e-01
5.010000000000000009e-01,-3.897387448692975487e-01
5.020000000000000018e-01,-3.667069671866844960e-01
5.030000000000000027e-01,-3.518920339950866172e-01
5.040000000000000036e-01,-3.140237543438516576e-01
5.050000000000000044e-01,-3.184950191639969175e-01
5.060000000000000053e-01,-3.266014738030235121e-01
5.070000000000000062e-01,-3.563658707374838253e-01
5.080000000000000071e-01,-3.410160738234344624e-01
5.090000000000000080e-01,-3.904887929872536967e-01
5.100000000000000089e-01,-4.276801368423587268e-01
5.110000000000000098e-01,-4.629611114638244596e-01
5.120000000000000107e-01,-4.926636879278089021e-01
5.130000000000000115e-01,-5.473168661962799497e-01
5.140000000000000124e-01,-5.227399950259088435e-01
5.150000000000000133e-01,-5.214580812580876801e-01
5.160000000000000142e-01,-5.512015393742875080e-01
5.170000000000000151e-01,-5.049158892416126809e-01
5.180000000000000160e-01,-5.112529390293722997e-01
5.190000000000000169e-01,-4.736695980094819958e-01
5.200000000000000178e-01,-4.664390150147628700e-01
5.210000000000000187e-01,-4.223678906793978949e-01
5.220000000000000195e-01,-3.838732850186873380e-01
5.230000000000000204e-01,-3.552173845696386389e-01
5.240000000000000213e-01,-3.931654195392569884e-01
5.250000000000000222e-01,-3.531410734958371211e-01
5.260000000000000231e-01,-3.563224915032617290e-01
5.270000000000000240e-01,-3.837245872720131956e-01
5.280000000000000249e-01,-3.942207746126688561e-01
5.290000000000000258e-01,-4.291307833992222265e-01
5.300000000000000266e-01,-5.170111358089953812e-01
5.310000000000000275e-01,-4.817458492304604878e-01
5.320000000000000284e-01,-5.520708683604836908e-01
5.330000000000000293e-01,-5.650189976876029974e-01
5.340000000000000302e-01,-5.816162581811561427e-01
5.350000000000000311e-01,-5.773601328459424531e-01
5.360000000000000320e-01,-5.807895361329395989e-01
5.370000000000000329e-01,-5.449957310793316356e-01
5.380000000000000338e-01,-5.261058079789724395e-01
5.390000000000000346e-01,-4.918545334010496206e-01
5.400000000000000355e-01,-4.852195146109925528e-01
5.410000000000000364e-01,-4.329257601643161646e-01
5.420000000000000373e-01,-4.293507059107001811e-01
5.430000000000000382e-01,-4.118060572633013838e-01
5.440000000000000391e-01,-4.169457817618548168e-01
5.450000000000000400e-01,-3.766596920828407802e-01
5.460000000000000409e-01,-3.572311732391424410e-01
5.470000000000000417e-01,-4.011669761659789057e-01
5.480000000000000426e-01,-4.368126060224505336e-01
5.490000000000000435e-01,-4.493249784515170875e-01
5.500000000000000444e-01,-4.910244652714423341e-01
5.510000000000000453e-01,-4.855728238113599660e-01
5.520000000000000462e-01,-5.388434097588060689e-01
5.530000000000000471e-01,-5.558622982721138639e-01
5.540000000000000480e-01,-6.043376622390187469e-01
5.550000000000000488e-01,-5.697575512038124401e-01
5.560000000000000497e-01,-5.660926974673901046e-01
5.570000000000000506e-01,-5.482033106314189164e-01
5.580000000000000515e-01,-5.769569620113538244e-01
5.590000000000000524e-01,-5.413455791333349199e-01
5.600000000000000533e-01,-4.863253377078348150e-01
5.610000000000000542e-01,-4.505110595876778978e-01
5.620000000000000551e-01,-4.220665122412061154e-01
5.630000000000000560e-01,-4.153123186622205698e-01
5.640000000000000568e-01,-3.998125199195977086e-01
5.650000000000000577e-01,-3.604153697336569540e-01
5.660000000000000586e-01,-4.056709007903264164e-01
5.670000000000000595e-01,-4.113594055305812014e-01
5.680000000000000604e-01,-4.607126523688188646e-01
5.690000000000000613e-01,-4.927562048874218892e-01
5.700000000000000622e-01,-4.723708541023936558e-01
5.710000000000000631e-01,-5.867559040784872115e-01
5.720000000000000639e-01,-5.938118563038095044e-01
5.730000000000000648e-01,-5.517935312052442143e-01
5.740000000000000657e-01,-5.311309833141399928e-01
5.750000000000000666e-01,-6.310192964201969401e-01
5.760000000000000675e-01,-5.756465218041485477e-01
5.769999999999999574e-01,-5.770725119421900029e-01
5.779999999999999583e-01,-5.349942871053442461e-01
5.789999999999999591e-01,-5.400875343778063220e-01
5.799999999999999600e-01,-5.115936875995162891e-01
5.809999999999999609e-01,-4.407587205512185080e-01
5.819999999999999618e-01,-4.619159067675535635e-01
5.829999999999999627e-01,-4.463091203649012240e-01
5.839999999999999636e-01,-3.646997108428595702e-01
5.849999999999999645e-01,-3.613077693914428234e-01
5.859999999999999654e-01,-4.051237492655913597e-01
5.869999999999999662e-01,-4.161686057034665875e-01
5.879999999999999671e-01,-4.555116414781206768e-01
5.889999999999999680e-01,-4.918408244696232390e-01
5.899999999999999689e-01,-5.031617547866551465e-01
5.909999999999999698e-01,-4.981994396883876464e-01
5.919999999999999707e-01,-5.623076480428570445e-01
5.929999999999999716e-01,-5.700271247799976182e-01
5.939999999999999725e-01,-5.868866976271069902e-01
5.949999999999999734e-01,-6.110313454844854553e-01
5.959999999999999742e-01,-5.790659590424499514e-01
5.969999999999999751e-01,-5.942157750631246182e-01
5.979999999999999760e-01,-5.406924114139447513e-01
5.989999999999999769e-01,-5.369165215854037054e-01
5.999999999999999778e-01,-4.934794767937081272e-01
6.009999999999999787e-01,-4.526292340216808152e-01
6.019999999999999796e-01,-4.182339024325998356e-01
6.029999999999999805e-01,-4.052271021932885020e-01
6.039999999999999813e-01,-4.198746044280160516e-01
6.049999999999999822e-01,-4.084653976584622370e-01
6.059999999999999831e-01,-3.896898897412296447e-01
6.069999999999999840e-01,-4.285205022344535930e-01
6.079999999999999849e-01,-4.208076400687880692e-01
6.089999999999999858e-01,-4.678787430584854246e-01
6.099999999999999867e-01,-4.756770050526178961e-01
6.109999999999999876e-01,-5.314410593490248580e-01
6.119999999999999885e-01,-5.400624119177920290e-01
6.129999999999999893e-01,-5.260779190623955381e-01
6.139999999999999902e-01,-5.455085258193097530e-01
6.149999999999999911e-01,-5.758138305704980642e-01
6.159999999999999920e-01,-6.188347855463984803e-01
6.169999999999999929e-01,-5.775625939533428621e-01
6.179999999999999938e-01,-5.648011151341921776e-01
6.189999999999999947e-01,-4.925282937045469267e-01
6.199999999999999956e-01,-4.660887925055732239e-01
6.209999999999999964e-01,-4.359748807380582347e-01
6.219999999999999973e-01,-3.936658021923364337e-01
6.229999999999999982e-01,-4.033470520323123032e-01
6.239999999999999991e-01,-3.433460355517410356e-01
6.250000000000000000e-01,-3.053723806704087274e-01
6.260000000000000009e-01,-3.538645978275229420e-01
6.270000000000000018e-01,-3.824940319071675199e-01
6.280000000000000027e-01,-4.263513451508268992e-01
6.290000000000000036e-01,-4.328369081933746143e-01
6.300000000000000044e-01,-4.393451362156508555e-01
6.310000000000000053e-01,-4.626692136027417135e-01
6.320000000000000062e-01,-4.708233822106794308e-01
6.330000000000000071e-01,-5.382746994273340801e-01
6.340000000000000080e-01,-5.505122135096118807e-01
6.350000000000000089e-01,-5.580177420791160303e-01
6.360000000000000098e-01,-5.395154905597157047e-01
6.370000000000000107e-01,-5.089082410632077558e-01
6.380000000000000115e-01,-5.078730844697761926e-01
6.390000000000000124e-01,-4.522297071933230606e-01
6.400000000000000133e-01,-4.201385184794872441e-01
6.410000000000000142e-01,-3.921505217703501467e-01
6.420000000000000151e-01,-3.687019762379463161e-01
6.430000000000000160e-01,-3.125741489862629563e-01
6.440000000000000169e-01,-3.568289046522946650e-01
6.450000000000000178e-01,-3.323335008510570621e-01
6.460000000000000187e-01,-3.329214813061902589e-01
6.470000000000000195e-01,-3.347784618571807980e-01
6.480000000000000204e-01,-3.677134344023779700e-01
6.490000000000000213e-01,-3.774380411364880450e-01
6.500000000000000222e-01,-4.144807425083255614e-01
6.510000000000000231e-01,-4.283824717280265704e-01
6.520000000000000240e-01,-4.735024422085597484e-01
6.530000000000000249e-01,-4.992576471285788964e-01
6.540000000000000258e-01,-4.719019590377275253e-01
6.550000000000000266e-01,-5.311651234534844335e-01
6.560000000000000275e-01,-5.098612187885422919e-01
6.570000000000000284e-01,-4.640096347529283349e-01
6.580000000000000293e-01,-4.646243213965038921e-01
6.590000000000000302e-01,-3.996273143057960664e-01
6.600000000000000311e-01,-3.916243878308960924e-01
6.610000000000000320e-01,-3.686392200649932782e-01
6.620000000000000329e-01,-3.191999782455139378e-01
6.630000000000000338e-01,-3.263197533994626198e-01
6.640000000000000346e-01,-2.736083878012451898e-01
6.650000000000000355e-01,-2.507171331066072595e-01
6.660000000000000364e-01,-2.686413701469579363e-01
6.670000000000000373e-01,-2.588409048873265283e-01
6.680000000000000382e-01,-3.165530754148591641e-01
6.690000000000000391e-01,-3.440149364504609397e-01
6.700000000000000400e-01,-3.818340640559271248e-01
6.710000000000000409e-01,-3.723428610345560497e-01
6.720000000000000417e-01,-4.322301865701013712e-01
6.730000000000000426e-01,-4.139215758579185556e-01
6.740000000000000435e-01,-4.398644320671801777e-01
6.750000000000000444e-01,-4.488427272141179980e-01
6.760000000000000453e-01,-4.551414031966109497e-01
6.770000000000000462e-01,-4.420662786045392312e-01
6.780000000000000471e-01,-4.176171875610606987e-01
6.790000000000000480e-01,-3.448965884751427624e-01
6.800000000000000488e-01,-3.248445772429999212e-01
6.810000000000000497e-01,-2.750713777873307619e-01
6.820000000000000506e-01,-2.909605211805477154e-01
6.830000000000000515e-01,-2.480530915994735852e-01
6.840000000000000524e-01,-2.416524027890976367e-01
6.850000000000000533e-01,-2.126150671950462756e-01
6.860000000000000542e-01,-1.889435130428240850e-01
6.870000000000000551e-01,-2.090324879483727860e-01
6.880000000000000560e-01,-2.631100766003614533e-01
6.890000000000000568e-01,-2.865861996248075805e-01
6.900000000000000577e-01,-2.663900989606860503e-01
6.910000000000000586e-01,-3.033139612306371413e-01
6.920000000000000595e-01,-3.733572395172728431e-01
6.930000000000000604e-01,-3.978431454203896211e-01
6.940000000000000613e-01,-4.072919249727954272e-01
6.950000000000000622e-01,-4.034231738756434149e-01
6.960000000000000631e-01,-3.849863805455983612e-01
6.970000000000000639e-01,-3.374407545665481511e-01
6.980000000000000648e-01,-3.428639544287429008e-01
6.990000000000000657e-01,-3.101907450484425732e-01
7.000000000000000666e-01,-2.662572225505358547e-01
7.010000000000000675e-01,-2.363330946970724211e-01
7.020000000000000684e-01,-1.948376688920796795e-01
7.030000000000000693e-01,-1.940655509416636115e-01
7.039999999999999591e-01,-1.809017420739210957e-01
7.049999999999999600e-01,-1.481978708313122506e-01
7.059999999999999609e-01,-1.584307527789227676e-01
7.069999999999999618e-01,-1.747026787270325732e-01
7.079999999999999627e-01,-1.498050110667609180e-01
7.089999999999999636e-01,-2.408955653079439541e-01
7.099999999999999645e-01,-2.463565029867232081e-01
7.109999999999999654e-01,-2.444508590033800111e-01
7.119999999999999662e-01,-2.802597892741293117e-01
7.129999999999999671e-01,-3.079042162892704493e-01
7.139999999999999680e-01,-3.446067997072367328e-01
7.149999999999999689e-01,-2.819195564950299215e-01
7.159999999999999698e-01,-3.020417163159254681e-01
7.169999999999999707e-01,-3.323669884401208585e-01
7.179999999999999716e-01,-2.509295653674180060e-01
7.189999999999999725e-01,-2.078250889796448841e-01
7.199999999999999734e-01,-1.976702638300711357e-01
7.209999999999999742e-01,-1.529182040151902955e-01
7.219999999999999751e-01,-1.254633698480517867e-01
7.229999999999999760e-01,-8.197157731430865235e-02
7.239999999999999769e-01,-7.875470356199122668e-02
7.249999999999999778e-01,-9.862176034605740771e-02
7.259999999999999787e-01,-3.805778775642186529e-02
7.269999999999999796e-01,-1.297264592809667105e-01
7.279999999999999805e-01,-1.179264327408349883e-01
7.289999999999999813e-01,-1.119582421469334926e-01
7.299999999999999822e-01,-1.725534582798207150e-01
7.309999999999999831e-01,-2.031136500235558306e-01
7.319999999999999840e-01,-2.387100285781275921e-01
7.329999999999999849e-01,-2.224501515493030324e-01
7.339999999999999858e-01,-2.709598905109766309e-01
7.349999999999999867e-01,-2.541481662272963571e-01
7.359999999999999876e-01,-2.220700294677264708e-01
7.369999999999999885e-01,-1.950175163563692693e-01
7.379999999999999893e-01,-1.745993888022009388e-01
7.389999999999999902e-01,-1.382623051845909279e-01
7.399999999999999911e-01,-7.013621792379159947e-02
7.409999999999999920e-01,-1.091188964457217025e-01
7.419999999999999929e-01,-6.278430473544956147e-02
7.429999999999999938e-01,-4.103495245445092088e-02
7.439999999999999947e-01,4.122923951990445368e-03
7.449999999999999956e-01,-1.448968298425092061e-02
7.459999999999999964e-01,-2.657660596972309663e-02
7.469999999999999973e-01,3.008539442170900940e-02
7.479999999999999982e-01,-5.031703696526748648e-02
7.489999999999999991e-01,-6.266150498127374957e-02
7.500000000000000000e-01,-8.119111008032059429e-02
7.510000000000000009e-01,-8.590647861600224366e-02
7.520000000000000018e-01,-1.374843841022654889e-01
7.530000000000000027e-01,-1.421301460754145762e-01
7.540000000000000036e-01,-1.561290296416011913e-01
7.550000000000000044e-01,-1.502036616844734662e-01
7.560000000000000053e-01,-1.401940508606392410e-01
7.570000000000000062e-01,-1.359831414042420583e-01
7.580000000000000071e-01,-8.893095691919550294e-02
7.590000000000000080e-01,-8.548740578593144734e-02
7.600000000000000089e-01,-4.184206454078357590e-02
7.610000000000000098e-01,-2.470021169895331159e-02
7.620000000000000107e-01,5.748926638877886741e-02
7.630000000000000115e-01,3.586571706948449290e-02
7.640000000000000124e-01,1.073093341682837404e-01
7.650000000000000133e-01,7.971543262490261850e-02
7.660000000000000142e-01,1.160110913912371366e-01
7.670000000000000151e-01,4.974521707439309715e-02
7.680000000000000160e-01,8.500593109984880269e-02
7.690000000000000169e-01,3.053294391004393593e-02
7.700000000000000178e-01,5.824081905038849469e-03
7.710000000000000187e-01,-3.009897252157032327e-02
7.720000000000000195e-01,-2.769611190185027744e-02
7.730000000000000204e-01,-6.794457355666744247e-02
7.740000000000000213e-01,-3.918698946301935049e-02
7.750000000000000222e-01,-1.119742022736464615e-01
7.760000000000000231e-01,-5.650031454853991081e-02
7.770000000000000240e-01,-9.546284655605402625e-02
7.780000000000000249e-01,-3.985518570135876404e-02
7.790000000000000258e-01,2.632472041198154547e-02
7.800000000000000266e-01,5.127670589391816053e-02
7.810000000000000275e-01,9.209184978388361420e-02
7.820000000000000284e-01,1.090924986066724583e-01
7.830000000000000293e-01,1.037885237064999633e-01
7.840000000000000302e-01,1.235166547357527955e-01
7.850000000000000311e-01,1.321599627045975667e-01
7.860000000000000320e-01,1.947194234066993435e-01
7.870000000000000329e-01,1.440971359960616927e-01
7.880000000000000338e-01,1.234022509184165978e-01
7.890000000000000346e-01,1.131702928135609743e-01
7.900000000000000355e-01,5.890871887578093269e-02
7.910000000000000364e-01,7.501523082463065761e-02
7.920000000000000373e-01,5.558902642972553959e-02
7.930000000000000382e-01,1.580169535167440242e-02
7.940000000000000391e-01,1.902749755331925585e-02
7.950000000000000400e-01,5.971448652953015301e-04
7.960000000000000409e-01,1.684810160055782990e-03
7.970000000000000417e-01,2.897004377886698567e-02
7.980000000000000426e-01,6.225762068862639165e-02
7.990000000000000435e-01,1.073605795203172453e-01
8.000000000000000444e-01,1.397322024969238630e-01
8.010000000000000453e-01,1.587017607926790863e-01
8.020000000000000462e-01,1.894910344598955687e-01
8.030000000000000471e-01,2.304344838665200457e-01
8.040000000000000480e-01,2.401623856238521704e-01
8.050000000000000488e-01,2.494927456744181482e-01
8.060000000000000497e-01,2.363125339518640511e-01
8.070000000000000506e-01,2.172065096987340349e-01
8.080000000000000515e-01,1.929540078889269428e-01
8.090000000000000524e-01,1.838356260872568981e-01
8.100000000000000533e-01,1.426436970766545298e-01
8.110000000000000542e-01,1.347433011667505953e-01
8.120000000000000551e-01,1.002671499821342904e-01
8.130000000000000560e-01,9.883533619400036718e-02
8.140000000000000568e-01,1.051576433768066227e-01
8.150000000000000577e-01,1.044022382192632825e-01
8.160000000000000586e-01,9.082786732935213547e-02
8.170000000000000595e-01,1.116794257983945993e-01
8.180000000000000604e-01,1.613417957895761368e-01
8.190000000000000613e-01,1.751190708562301579e-01
8.200000000000000622e-01,2.096726300614838445e-01
8.210000000000000631e-01,2.308126937330621520e-01
8.220000000000000639e-01,2.494727064055109744e-01
8.230000000000000648e-01,2.942126815579618193e-01
8.240000000000000657e-01,3.026526151385105501e-01
8.250000000000000666e-01,2.896461258794829630e-01
8.260000000000000675e-01,3.059235579947213735e-01
8.270000000000000684e-01,3.405699805872778319e-01
8.280000000000000693e-01,2.864894420879341430e-01
8.290000000000000702e-01,2.550198647552261999e-01
8.300000000000000711e-01,2.432472627218459638e-01
8.310000000000000719e-01,1.660721469437813624e-01
8.320000000000000728e-01,1.964102140686823650e-01
8.329999999999999627e-01,1.924220731102304072e-01
8.339999999999999636e-01,1.178531134346799236e+00
8.349999999999999645e-01,4.473036155041838491e-01
8.359999999999999654e-01,-3.181013013895473973e-01
8.369999999999999662e-01,1.815314355951619385e-01
8.379999999999999671e-01,1.975053500355519187e-01
8.389999999999999680e-01,2.527302103877389072e-01
8.399999999999999689e-01,2.682219688658954992e-01
8.409999999999999698e-01,3.314501221992311453e-01
8.419999999999999707e-01,2.971372726239673856e-01
8.429999999999999716e-01,3.439988323897695821e-01
8.439999999999999725e-01,3.862991189642952516e-01
8.449999999999999734e-01,3.841231628359017547e-01
8.459999999999999742e-01,3.785145740478442766e-01
8.469999999999999751e-01,3.896334392114546574e-01
8.479999999999999760e-01,3.555050022237495333e-01
8.489999999999999769e-01,3.245043967694173359e-01
8.499999999999999778e-01,2.807866406995575548e-01
8.509999999999999787e-01,2.920014877921318641e-01
8.519999999999999796e-01,2.565667956943065153e-01
8.529999999999999805e-01,2.403953568328610069e-01
8.539999999999999813e-01,2.436903070218507661e-01
8.549999999999999822e-01,2.114931157933201689e-01
8.559999999999999831e-01,2.317759455817345327e-01
8.569999999999999840e-01,2.421832296363214954e-01
8.579999999999999849e-01,2.738052197433725743e-01
8.589999999999999858e-01,3.178726052586497985e-01
8.599999999999999867e-01,3.295025265521295266e-01
8.609999999999999876e-01,3.981117403973767899e-01
8.619999999999999885e-01,4.213007750088978987e-01
8.629999999999999893e-01,4.210178752414098224e-01
8.639999999999999902e-01,4.247329696464539062e-01
8.649999999999999911e-01,4.712236955520439086e-01
8.659999999999999920e-01,4.199620422462972957e-01
8.669999999999999929e-01,4.200112936385834717e-01
8.679999999999999938e-01,4.067847796094558599e-01
8.689999999999999947e-01,3.756725848066388984e-01
8.699999999999999956e-01,3.774021327651346236e-01
8.709999999999999964e-01,3.048703299402400480e-01
8.719999999999999973e-01,2.843365937815233169e-01
8.729999999999999982e-01,3.029322081760573715e-01
8.739999999999999991e-01,2.589794983091934233e-01
8.750000000000000000e-01,2.670622675864307016e-01
8.760000000000000009e-01,2.903777696153829746e-01
8.770000000000000018e-01,3.162983853517900013e-01
8.780000000000000027e-01,3.298682860329881783e-01
8.790000000000000036e-01,3.728885152139643777e-01
8.800000000000000044e-01,3.686035205111515833e-01
8.810000000000000053e-01,4.347161152435073950e-01
8.820000000000000062e-01,4.489528172349512847e-01
8.830000000000000071e-01,4.873378045691149074e-01
8.840000000000000080e-01,4.924409947707938384e-01
8.850000000000000089e-01,5.109310725548131815e-01
8.860000000000000098e-01,4.815923561970221201e-01
8.870000000000000107e-01,4.913447895333617477e-01
8.880000000000000115e-01,4.657328943766247398e-01
8.890000000000000124e-01,4.501944118313839782e-01
8.900000000000000133e-01,4.370918008260381571e-01
8.910000000000000142e-01,3.729072487114789003e-01
8.920000000000000151e-01,3.593863173938884326e-01
8.930000000000000160e-01,3.653372196624023460e-01
8.940000000000000169e-01,3.429090345646513827e-01
8.950000000000000178e-01,3.142773266062052206e-01
8.960000000000000187e-01,3.390513536786328164e-01
8.970000000000000195e-01,3.414997045511443119e-01
8.980000000000000204e-01,3.635531572358741137e-01
8.990000000000000213e-01,4.118929119179267073e-01
9.000000000000000222e-01,4.139045708631496900e-01
9.010000000000000231e-01,4.806043389907185270e-01
9.020000000000000240e-01,5.034675204422746075e-01
9.030000000000000249e-01,5.013544424484882578e-01
9.040000000000000258e-01,5.154274489221843947e-01
9.050000000000000266e-01,5.912895850517927432e-01
9.060000000000000275e-01,5.222561158163794293e-01
9.070000000000000284e-01,5.204340411862136140e-01
9.080000000000000293e-01,5.150646216675398570e-01
9.090000000000000302e-01,4.851485360214578546e-01
9.100000000000000311e-01,4.642479185101978656e-01
9.110000000000000320e-01,4.457827170467543731e-01
9.120000000000000329e-01,3.716765508210019275e-01
9.130000000000000338e-01,3.874551111498165668e-01
9.140000000000000346e-01,3.734995458377174393e-01
9.150000000000000355e-01,3.734735250282600338e-01
9.160000000000000364e-01,3.925389963210887401e-01
9.170000000000000373e-01,4.223049679499450981e-01
9.180000000000000382e-01,4.407779863891965744e-01
9.190000000000000391e-01,4.228192507200573269e-01
9.200000000000000400e-01,4.452205987934549358e-01
9.210000000000000409e-01,5.137534381366175573e-01
9.220000000000000417e-01,5.481547249183885695e-01
9.230000000000000426e-01,5.535011431178692431e-01
9.240000000000000435e-01,5.960947550363500103e-01
9.250000000000000444e-01,5.653688694630220057e-01
9.260000000000000453e-01,5.839909867358792361e-01
9.270000000000000462e-01,5.685742419119145241e-01
9.280000000000000471e-01,5.708787684673658491e-01
9.290000000000000480e-01,4.954960717702084350e-01
9.300000000000000488e-01,5.105031607252831227e-01
9.310000000000000497e-01,4.495560355103765948e-01
9.320000000000000506e-01,4.400707723424528428e-01
9.330000000000000515e-01,3.874541445636405790e-01
9.340000000000000524e-01,3.908707972382736151e-01
9.350000000000000533e-01,3.699826749325433317e-01
9.360000000000000542e-01,4.153712425239668993e-01
9.370000000000000551e-01,3.814575872190241190e-01
9.380000000000000560e-01,4.425041584507989345e-01
9.390000000000000568e-01,4.400830083158716599e-01
9.400000000000000577e-01,5.370617728457313111e-01
9.410000000000000586e-01,5.214239207084128136e-01
9.420000000000000595e-01,5.634720408885520726e-01
9.430000000000000604e-01,5.748248391089720855e-01
9.440000000000000613e-01,6.030268745237046257e-01
9.450000000000000622e-01,6.150215203353719406e-01
9.460000000000000631e-01,5.671265451660217893e-01
9.470000000000000639e-01,5.611873317120935623e-01
9.480000000000000648e-01,5.498580270515257551e-01
9.490000000000000657e-01,4.809375817278919718e-01
9.500000000000000666e-01,5.231536827853734417e-01
9.510000000000000675e-01,4.885867776877189650e-01
9.520000000000000684e-01,4.238970512598334572e-01
9.530000000000000693e-01,4.439955571212469421e-01
9.540000000000000702e-01,3.974053870092578156e-01
9.550000000000000711e-01,4.092812385982452783e-01
9.560000000000000719e-01,4.256066477192492203e-01
9.570000000000000728e-01,4.135380023625729318e-01
9.580000000000000737e-01,4.193799038561823456e-01
9.590000000000000746e-01,4.855512072325988138e-01
9.599999999999999645e-01,5.137063838273840943e-01
9.609999999999999654e-01,5.849139776344869368e-01
9.619999999999999662e-01,5.347338539237419530e-01
9.629999999999999671e-01,5.640447427144260617e-01
9.639999999999999680e-01,5.852918418759540664e-01
9.649999999999999689e-01,5.777696400663318022e-01
9.659999999999999698e-01,6.030777100933892854e-01
9.669999999999999707e-01,5.762456753963869360e-01
9.679999999999999716e-01,5.589168516666330744e-01
9.689999999999999725e-01,5.189607488000114177e-01
9.699999999999999734e-01,5.133102766271354644e-01
9.709999999999999742e-01,4.505168507629311869e-01
9.719999999999999751e-01,4.439607398878882005e-01
9.729999999999999760e-01,4.113657960922006418e-01
9.739999999999999769e-01,4.177708069077210595e-01
9.749999999999999778e-01,4.234176434361844876e-01
9.759999999999999787e-01,4.154344942465801327e-01
9.769999999999999796e-01,3.981400474292098313e-01
9.779999999999999805e-01,4.306180466265007722e-01
9.789999999999999813e-01,4.247388924657667930e-01
9.799999999999999822e-01,5.015244630488554511e-01
9.809999999999999831e-01,5.285097819259568785e-01
9.819999999999999840e-01,5.669048212697622713e-01
9.829999999999999849e-01,5.969399985472311210e-01
9.839999999999999858e-01,6.006821401090995938e-01
9.849999999999999867e-01,6.014528457476027157e-01
9.859999999999999876e-01,5.947593603485424874e-01
9.869999999999999885e-01,5.989226089522847740e-01
9.879999999999999893e-01,5.503123909250000612e-01
9.889999999999999902e-01,5.406737194413706593e-01
9.899999999999999911e-01,5.035063450858862089e-01
9.909999999999999920e-01,4.410060165395269238e-01
9.919999999999999929e-01,4.255861297370777674e-01
9.929999999999999938e-01,4.047733584094295733e-01
9.939999999999999947e-01,3.683827539520732053e-01
9.949999999999999956e-01,3.724777973889253913e-01
9.959999999999999964e-01,4.013533803753994156e-01
9.969999999999999973e-01,4.217699629560865970e-01
9.979999999999999982e-01,4.490322492861889558e-01
9.989999999999999991e-01,4.493851531297842761e-01
1.000000000000000000e+00,4.569208094263257358e-01
1.001000000000000112e+00,4.766993812349626936e-01
1.002000000000000002e+00,4.920321694819578817e-01
1.003000000000000114e+00,5.646051766575730380e-01
1.004000000000000004e+00,5.689183639514849844e-01
1.005000000000000115e+00,5.548261652491739415e-01
1.006000000000000005e+00,5.606286182645302540e-01
1.007000000000000117e+00,5.483031877952482258e-01
1.008000000000000007e+00,4.988154168183978610e-01
1.009000000000000119e+00,4.681103161213375219e-01
1.010000000000000009e+00,4.424191164793746522e-01
1.011000000000000121e+00,4.395300488954589913e-01
1.012000000000000011e+00,4.206546650595776593e-01
1.013000000000000123e+00,3.889613128865937464e-01
1.014000000000000012e+00,3.597209612791512634e-01
1.015000000000000124e+00,3.389106394156198299e-01
1.016000000000000014e+00,3.516789310670913604e-01
1.017000000000000126e+00,3.575743618071811070e-01
1.018000000000000016e+00,3.715613882091378106e-01
1.019000000000000128e+00,3.914842947998493083e-01
1.020000000000000018e+00,4.266695881124840106e-01
1.021000000000000130e+00,4.665774424033427015e-01
1.022000000000000020e+00,4.806335621527886293e-01
1.023000000000000131e+00,5.407411286790719807e-01
1.024000000000000021e+00,5.139852569073788402e-01
1.024999999999999911e+00,5.334387266801657868e-01
1.026000000000000023e+00,5.467247472171875566e-01
1.026999999999999913e+00,5.388737288525459190e-01
1.028000000000000025e+00,5.006474799041638057e-01
1.028999999999999915e+00,4.156709532067041080e-01
1.030000000000000027e+00,4.263793054777463287e-01
1.030999999999999917e+00,3.799225237371324781e-01
1.032000000000000028e+00,3.355532595791470007e-01
1.032999999999999918e+00,3.564995410037180568e-01
1.034000000000000030e+00,3.321708180366497731e-01
1.034999999999999920e+00,3.220599442217871866e-01
1.036000000000000032e+00,2.838301252503713235e-01
1.036999999999999922e+00,3.309648782281277013e-01
1.038000000000000034e+00,3.499577396973033161e-01
1.038999999999999924e+00,3.914870918591628057e-01
1.040000000000000036e+00,4.229256681228871217e-01
1.040999999999999925e+00,3.907616614699347957e-01
1.042000000000000037e+00,4.353448498549514212e-01
1.042999999999999927e+00,4.686456831155047520e-01
1.044000000000000039e+00,4.825803458922940936e-01
1.044999999999999929e+00,4.935346461143890195e-01
1.046000000000000041e+00,4.832126569907798652e-01
1.046999999999999931e+00,4.561539718126561560e-01
1.048000000000000043e+00,4.692199487907643962e-01
1.048999999999999932e+00,4.140802391835395335e-01
1.050000000000000044e+00,3.602282678247728520e-01
1.050999999999999934e+00,3.282343704445120913e-01
1.052000000000000046e+00,2.901723628066567029e-01
1.052999999999999936e+00,2.882338801072855672e-01
1.054000000000000048e+00,2.746621626459868626e-01
1.054999999999999938e+00,2.621162062908817258e-01
1.056000000000000050e+00,2.093043224021747251e-01
1.056999999999999940e+00,2.595634300004042716e-01
1.058000000000000052e+00,2.742535998841086342e-01
1.058999999999999941e+00,2.975007163253394205e-01
1.060000000000000053e+00,3.505175720644714277e-01
1.060999999999999943e+00,3.770934631684677574e-01
1.062000000000000055e+00,3.774407146105175914e-01
1.062999999999999945e+00,4.098723405776610318e-01
1.064000000000000057e+00,4.270436986358672193e-01
1.064999999999999947e+00,4.408964548652808402e-01
1.066000000000000059e+00,3.857943753319761360e-01
1.066999999999999948e+00,3.848417538495035317e-01
1.068000000000000060e+00,3.644650809398097824e-01
1.068999999999999950e+00,3.543196674552842040e-01
1.070000000000000062e+00,3.343152507996318690e-01
1.070999999999999952e+00,2.706828096577498233e-01
1.072000000000000064e+00,2.271889165438590874e-01
1.072999999999999954e+00,2.422806713389279443e-01
1.074000000000000066e+00,2.533642513478661651e-01
1.074999999999999956e+00,2.112205503889527380e-01
1.076000000000000068e+00,1.992225610669419722e-01
1.076999999999999957e+00,2.216165294317291035e-01
1.078000000000000069e+00,2.402421319769008912e-01
1.078999999999999959e+00,2.743071164207744328e-01
1.080000000000000071e+00,2.727247337507101022e-01
1.080999999999999961e+00,3.070725879123404889e-01
1.082000000000000073e+00,3.145937980745373008e-01
1.082999999999999963e+00,3.656699700704503231e-01
1.084000000000000075e+00,3.494031397470307998e-01
1.084999999999999964e+00,3.248588689936496854e-01
1.086000000000000076e+00,3.580272459389499673e-01
1.086999999999999966e+00,3.372730755999993058e-01
1.088000000000000078e+00,3.385355246876861068e-01
1.088999999999999968e+00,2.811524384712313918e-01
1.090000000000000080e+00,2.324326120227528103e-01
1.090999999999999970e+00,2.254251695627940144e-01
1.092000000000000082e+00,1.860264315815068625e-01
1.092999999999999972e+00,1.402943332240562113e-01
1.094000000000000083e+00,1.379070106207824775e-01
1.094999999999999973e+00,1.652737226816939076e-01
1.096000000000000085e+00,1.420990343700585523e-01
1.096999999999999975e+00,1.322005735989324471e-01
1.098000000000000087e+00,1.871727359232023269e-01
1.098999999999999977e+00,1.601621888284301964e-01
1.100000000000000089e+00,2.025503875454253699e-01
1.100999999999999979e+00,2.537908689025019093e-01
1.102000000000000091e+00,3.000673281395850878e-01
1.102999999999999980e+00,2.921507831536356847e-01
1.104000000000000092e+00,2.996855597532079862e-01
1.104999999999999982e+00,2.601982524776684791e-01
1.106000000000000094e+00,3.137356668801223880e-01
1.106999999999999984e+00,2.778893914396087794e-01
1.108000000000000096e+00,2.231507903733970233e-01
1.108999999999999986e+00,1.993975381414593573e-01
1.110000000000000098e+00,1.965559176493866800e-01
1.110999999999999988e+00,1.528421696552183517e-01
1.112000000000000099e+00,1.219904536006539003e-01
1.112999999999999989e+00,1.057514969917817821e-01
1.114000000000000101e+00,5.889666951654894123e-02
1.114999999999999991e+00,7.945199204925743053e-02
1.116000000000000103e+00,5.484831166672822500e-02
1.116999999999999993e+00,7.849058380258930323e-02
1.118000000000000105e+00,7.078594828622208901e-02
1.118999999999999995e+00,1.131346265242645505e-01
1.120000000000000107e+00,1.065252228808989260e-01
1.120999999999999996e+00,1.414381861121198902e-01
1.122000000000000108e+00,1.705876009063689025e-01
1.122999999999999998e+00,2.270186030461110727e-01
1.124000000000000110e+00,2.269481744826364333e-01
1.125000000000000000e+00,2.128967447975697869e-01
1.126000000000000112e+00,2.240289954297679520e-01
1.127000000000000002e+00,1.900925888441441503e-01
1.128000000000000114e+00,1.512423160232888864e-01
1.129000000000000004e+00,1.574708648478107542e-01
1.130000000000000115e+00,1.056826442633179569e-01
1.131000000000000005e+00,6.568139039331533091e-02
1.132000000000000117e+00,4.214831761770419100e-02
1.133000000000000007e+00,-2.262005613349979405e-02
1.134000000000000119e+00,-1.590284713833133023e-02
1.135000000000000009e+00,-6.547745398927612426e-02
1.136000000000000121e+00,-3.463272241636186632e-02
1.137000000000000011e+00,-2.115491744970990351e-02
1.138000000000000123e+00,1.064945499743244484e-03
1.139000000000000012e+00,5.798060653794633729e-03
1.140000000000000124e+00,4.896331474019621072e-02
1.141000000000000014e+00,1.167633511677967778e-01
1.142000000000000126e+00,1.027188663216456188e-01
1.143000000000000016e+00,1.284050832876625914e-01
1.144000000000000128e+00,1.624333719148097210e-01
1.145000000000000018e+00,1.646465544275503012e-01
1.146000000000000130e+00,1.508125821372432451e-01
1.147000000000000020e+00,8.537106829164617383e-02
1.148000000000000131e+00,1.052235239267756556e-01
1.149000000000000021e+00,7.800385194656220267e-02
1.150000000000000133e+00,-2.417976263339251025e-04
1.151000000000000023e+00,-2.668223034623228712e-02
1.152000000000000135e+00,-5.872122127795028484e-02
1.153000000000000025e+00,-9.873074492378794420e-02
1.153999999999999915e+00,-1.016256504029472568e-01
1.155000000000000027e+00,-6.448711343232363391e-02
1.155999999999999917e+00,-1.213304539713016550e-01
1.157000000000000028e+00,-9.599421371886546206e-02
1.157999999999999918e+00,-1.059666307921005302e-01
1.159000000000000030e+00,-4.554443887465466079e-02
1.159999999999999920e+00,-2.822452393257895292e-02
1.161000000000000032e+00,8.002208753102500738e-03
1.161999999999999922e+00,1.805221842530811693e-02
1.163000000000000034e+00,3.671169893174992815e-02
1.163999999999999924e+00,6.624048463961414168e-02
1.165000000000000036e+00,3.243882303758013896e-02
1.165999999999999925e+00,7.093072050684576246e-02
1.167000000000000037e+00,1.368747610242207480e-02
1.167999999999999927e+00,2.751739997482064576e-02
1.169000000000000039e+00,-4.318297350169543469e-02
1.169999999999999929e+00,-1.537211360500802086e-02
1.171000000000000041e+00,-1.089033679784725817e-01
1.171999999999999931e+00,-1.461679319246571296e-01
1.173000000000000043e+00,-1.685328039429822011e-01
1.173999999999999932e+00,-1.842906672441800842e-01
1.175000000000000044e+00,-1.688207364470222793e-01
1.175999999999999934e+00,-1.737602827195919297e-01
1.177000000000000046e+00,-1.605741334207946847e-01
1.177999999999999936e+00,-1.617100929933185105e-01
1.179000000000000048e+00,-1.106516060326695611e-01
1.179999999999999938e+00,-8.792770730272528312e-02
1.181000000000000050e+00,-8.790702444675141392e-02
1.181999999999999940e+00,-2.974143388259804788e-02
1.183000000000000052e+00,-8.769687454591848508e-03
1.183999999999999941e+00,-2.721941596228906468e-02
1.185000000000000053e+00,-4.155312550324435916e-02
1.185999999999999943e+00,-4.649279218455838747e-02
1.187000000000000055e+00,-5.545268244694134818e-02
1.187999999999999945e+00,-8.818651767617025072e-02
1.189000000000000057e+00,-1.300751461608761761e-01
1.189999999999999947e+00,-1.411749996309394628e-01
1.191000000000000059e+00,-1.752582058352706307e-01
1.191999999999999948e+00,-2.132913911246961114e-01
1.193000000000000060e+00,-2.253350516226184097e-01
1.193999999999999950e+00,-2.396235618746738183e-01
1.195000000000000062e+00,-2.808211969736755798e-01
1.195999999999999952e+00,-2.690455216548492401e-01
1.197000000000000064e+00,-2.386941325222872445e-01
1.197999999999999954e+00,-2.460284797224935316e-01
1.199000000000000066e+00,-2.134881006766634615e-01
1.199999999999999956e+00,-1.378574562660139502e-01
1.201000000000000068e+00,-1.979676694504422518e-01
1.201999999999999957e+00,-1.380656930139025906e-01
1.203000000000000069e+00,-8.637991236065958867e-02
1.203999999999999959e+00,-6.222511609183371817e-02
1.205000000000000071e+00,-8.406318802756418407e-02
1.205999999999999961e+00,-1.401843412990287363e-01
1.207000000000000073e+00,-1.054983337875081140e-01
1.207999999999999963e+00,-1.327273128403287927e-01
1.209000000000000075e+00,-1.995272573766047608e-01
1.209999999999999964e+00,-1.998718910512747027e-01
1.211000000000000076e+00,-2.708754792056565774e-01
1.211999999999999966e+00,-2.657522109497945095e-01
1.213000000000000078e+00,-3.034761992732888936e-01
1.213999999999999968e+00,-3.651600072163082578e-01
1.215000000000000080e+00,-3.746512169049489582e-01
1.215999999999999970e+00,-3.547688073157451161e-01
1.217000000000000082e+00,-2.903844757711035451e-01
1.217999999999999972e+00,-3.123142483737750275e-01
1.219000000000000083e+00,-2.920036637668398383e-01
1.219999999999999973e+00,-2.877953580060856886e-01
1.221000000000000085e+00,-2.437594243338537803e-01
1.221999999999999975e+00,-2.396852970101633340e-01
1.223000000000000087e+00,-1.506180520004780643e-01
1.223999999999999977e+00,-1.595659948724191257e-01
1.225000000000000089e+00,-1.704208501472787851e-01
1.225999999999999979e+00,-1.589336452942309852e-01
1.227000000000000091e+00,-2.136264453143730258e-01
1.227999999999999980e+00,-2.219669775323273031e-01
1.229000000000000092e+00,-2.623824621720940442e-01
1.229999999999999982e+00,-2.790546202641834284e-01
1.231000000000000094e+00,-3.446784491706681997e-01
1.231999999999999984e+00,-3.734563823045566888e-01
1.233000000000000096e+00,-4.149754672844097048e-01
1.233999999999999986e+00,-3.924279897300618214e-01
1.235000000000000098e+00,-4.012157058834628920e-01
1.235999999999999988e+00,-4.006186131436574871e-01
1.237000000000000099e+00,-4.001296592953986764e-01
1.237999999999999989e+00,-3.328508784943345900e-01
1.239000000000000101e+00,-3.555514022107049699e-01
1.239999999999999991e+00,-3.420835507731653791e-01
1.241000000000000103e+00,-3.156839637573914392e-01
1.241999999999999993e+00,-2.213845352654504606e-01
1.243000000000000105e+00,-2.258492657332964171e-01
1.243999999999999995e+00,-2.435495060516583155e-01
1.245000000000000107e+00,-2.583094145762644400e-01
1.245999999999999996e+00,-2.298605281955353186e-01
1.247000000000000108e+00,-2.678277234321763678e-01
1.247999999999999998e+00,-2.877958273054535554e-01
1.249000000000000110e+00,-3.319429927054434737e-01
1.250000000000000000e+00,-3.575622452236144611e-01
1.251000000000000112e+00,-3.637456537461589146e-01
1.252000000000000002e+00,-4.304463901565540040e-01
1.253000000000000114e+00,-4.344851494382575008e-01
1.254000000000000004e+00,-4.676650779269244662e-01
1.255000000000000115e+00,-4.813978067941971917e-01
1.256000000000000005e+00,-4.351315580487962187e-01
1.257000000000000117e+00,-4.782444379711627280e-01
1.258000000000000007e+00,-4.149496445358846763e-01
1.259000000000000119e+00,-3.908636404554303168e-01
1.260000000000000009e+00,-3.633913551804793252e-01
1.261000000000000121e+00,-3.422864702225134614e-01
1.262000000000000011e+00,-3.560552694133070073e-01
1.263000000000000123e+00,-3.085652352267111431e-01
1.264000000000000012e+00,-3.050213933070562433e-01
1.265000000000000124e+00,-2.836065639409597328e-01
1.266000000000000014e+00,-2.692497169071413898e-01
1.267000000000000126e+00,-3.251568578934236342e-01
1.268000000000000016e+00,-3.836822860901473731e-01
1.269000000000000128e+00,-3.970645050450885560e-01
1.270000000000000018e+00,-3.937688600193302579e-01
1.271000000000000130e+00,-4.247604184385476711e-01
1.272000000000000020e+00,-4.605562170863560789e-01
1.273000000000000131e+00,-4.993406066600575288e-01
1.274000000000000021e+00,-5.442715790417285149e-01
1.275000000000000133e+00,-5.508985543343490887e-01
1.276000000000000023e+00,-5.134164141461686759e-01
1.277000000000000135e+00,-4.801933632925133866e-01
1.278000000000000025e+00,-4.976033359771874220e-01
1.279000000000000137e+00,-4.576165410603870165e-01
1.280000000000000027e+00,-4.321070064512850251e-01
1.280999999999999917e+00,-3.888337664108943437e-01
1.282000000000000028e+00,-3.595167742054304338e-01
1.282999999999999918e+00,-3.513407121670981126e-01
1.284000000000000030e+00,-3.426938012403019096e-01
1.284999999999999920e+00,-3.456206770472023404e-01
1.286000000000000032e+00,-3.636667908747300282e-01
1.286999999999999922e+00,-3.565327074984797617e-01
1.288000000000000034e+00,-3.971978879063456924e-01
1.288999999999999924e+00,-4.405287204655071731e-01
1.290000000000000036e+00,-5.008287480550376314e-01
1.290999999999999925e+00,-5.194413211459291135e-01
1.292000000000000037e+00,-5.229804939970212896e-01
1.292999999999999927e+00,-5.552099746689904691e-01
1.294000000000000039e+00,-5.390173749459929997e-01
1.294999999999999929e+00,-5.441541350743296368e-01
1.296000000000000041e+00,-5.697336244851738396e-01
1.296999999999999931e+00,-5.795607291292467211e-01
1.298000000000000043e+00,-5.363703316632151274e-01
1.298999999999999932e+00,-4.873628948445025144e-01
1.300000000000000044e+00,-4.633729795182668365e-01
1.300999999999999934e+00,-4.357183865738205042e-01
1.302000000000000046e+00,-4.265597950692613383e-01
1.302999999999999936e+00,-4.074737792199749631e-01
1.304000000000000048e+00,-3.757746203519632400e-01
1.304999999999999938e+00,-3.648201629750148500e-01
1.306000000000000050e+00,-3.629119181684867246e-01
1.306999999999999940e+00,-3.965078563785364718e-01
1.308000000000000052e+00,-4.220123919969492321e-01
1.308999999999999941e+00,-4.693655506170171243e-01
1.310000000000000053e+00,-4.453137356647148826e-01
1.310999999999999943e+00,-5.097351540262806679e-01
1.312000000000000055e+00,-5.602169477003159370e-01
1.312999999999999945e+00,-5.917731225955000784e-01
1.314000000000000057e+00,-5.666541918946638168e-01
1.314999999999999947e+00,-6.014420310280107485e-01
1.316000000000000059e+00,-5.541497170712320619e-01
1.316999999999999948e+00,-5.375810506686543588e-01
1.318000000000000060e+00,-5.073315253864270069e-01
1.318999999999999950e+00,-5.354757403046236375e-01
1.320000000000000062e+00,-4.951162692394889264e-01
1.320999999999999952e+00,-4.506986278804564483e-01
1.322000000000000064e+00,-4.189402582902004291e-01
1.322999999999999954e+00,-4.026903553606073216e-01
1.324000000000000066e+00,-4.320495501496731117e-01
1.324999999999999956e+00,-3.575679794084113405e-01
1.326000000000000068e+00,-3.949076388908432933e-01
1.326999999999999957e+00,-4.010397127332829825e-01
1.328000000000000069e+00,-4.255663191447826010e-01
1.328999999999999959e+00,-4.804196128312610004e-01
1.330000000000000071e+00,-4.889396249863325883e-01
1.330999999999999961e+00,-5.232647551323501567e-01
1.332000000000000073e+00,-5.460323076046083024e-01
1.332999999999999963e+00,-5.931043570676333143e-01
1.334000000000000075e+00,-5.802717164450497123e-01
1.334999999999999964e+00,-5.859942193175275982e-01
1.336000000000000076e+00,-6.122061421455691210e-01
1.336999999999999966e+00,-6.285325907379784027e-01
1.338000000000000078e+00,-5.496113360508247947e-01
1.338999999999999968e+00,-5.322673680688755349e-01
1.340000000000000080e+00,-5.026744299267738025e-01
1.340999999999999970e+00,-4.717861009743440914e-01
1.342000000000000082e+00,-4.209180674522449150e-01
1.342999999999999972e+00,-4.128732268232162550e-01
1.344000000000000083e+00,-3.858338655063449640e-01
1.344999999999999973e+00,-3.818316984723970631e-01
1.346000000000000085e+00,-4.204230543211308069e-01
1.346999999999999975e+00,-4.368699869638555944e-01
1.348000000000000087e+00,-4.823977365594062650e-01
1.348999999999999977e+00,-4.986385096499437730e-01
1.350000000000000089e+00,-5.083225150588072117e-01
1.350999999999999979e+00,-5.616957537460027794e-01
1.352000000000000091e+00,-5.431378118866229121e-01
1.352999999999999980e+00,-5.542057726800204698e-01
1.354000000000000092e+00,-5.900710213063738996e-01
1.354999999999999982e+00,-6.103804394854662752e-01
1.356000000000000094e+00,-5.817238563206287294e-01
1.356999999999999984e+00,-5.745157143501521402e-01
1.358000000000000096e+00,-5.665404612766289372e-01
1.358999999999999986e+00,-5.321205831994325619e-01
1.360000000000000098e+00,-5.172331146962686477e-01
1.360999999999999988e+00,-4.631457149636125092e-01
1.362000000000000099e+00,-4.541724909061506388e-01
1.362999999999999989e+00,-4.296675104128189204e-01
1.364000000000000101e+00,-4.193274136292474696e-01
1.364999999999999991e+00,-3.772895917868970272e-01
1.366000000000000103e+00,-3.741385489603210601e-01
1.366999999999999993e+00,-4.427316650830814826e-01
1.368000000000000105e+00,-4.571144771894111170e-01
1.368999999999999995e+00,-4.633191287887679088e-01
1.370000000000000107e+00,-4.775668221974124217e-01
1.370999999999999996e+00,-4.961967729841814667e-01
1.372000000000000108e+00,-5.696227701010522226e-01
1.372999999999999998e+00,-5.819851594059428646e-01
1.374000000000000110e+00,-6.072011746598080517e-01
1.375000000000000000e+00,-6.071871822148904307e-01
1.376000000000000112e+00,-5.993221036977356420e-01
1.377000000000000002e+00,-5.463330180876939668e-01
1.378000000000000114e+00,-5.536687540289622067e-01
1.379000000000000004e+00,-4.933078611008988590e-01
1.380000000000000115e+00,-4.534106148658108015e-01
1.381000000000000005e+00,-4.309777391440319239e-01
1.382000000000000117e+00,-3.847025089487819960e-01
1.383000000000000007e+00,-3.547111623901452737e-01
1.384000000000000119e+00,-4.131503149610773473e-01
1.385000000000000009e+00,-3.486658789443733975e-01
1.386000000000000121e+00,-3.788050374801331666e-01
1.387000000000000011e+00,-3.752457975930992284e-01
1.388000000000000123e+00,-3.832547081248604548e-01
1.389000000000000012e+00,-4.471010107300872338e-01
1.390000000000000124e+00,-4.473706200673503441e-01
1.391000000000000014e+00,-5.160822522989995109e-01
1.392000000000000126e+00,-5.013926217929384199e-01
1.393000000000000016e+00,-5.240257177773525177e-01
1.394000000000000128e+00,-5.621431602727309240e-01
1.395000000000000018e+00,-5.532238067296167960e-01
1.396000000000000130e+00,-5.677956173239916415e-01
1.397000000000000020e+00,-5.839727927329125823e-01
1.398000000000000131e+00,-4.750806093427169530e-01
1.399000000000000021e+00,-5.036952782260339934e-01
1.400000000000000133e+00,-4.754608344204350190e-01
1.401000000000000023e+00,-4.598469158134163015e-01
1.402000000000000135e+00,-3.803723063764304912e-01
1.403000000000000025e+00,-3.280912868402453553e-01
1.404000000000000137e+00,-3.584691172549775429e-01
1.405000000000000027e+00,-3.316052116657267623e-01
1.406000000000000139e+00,-3.614793063596579703e-01
1.407000000000000028e+00,-3.851850026125359649e-01
1.407999999999999918e+00,-3.300468679090511892e-01
1.409000000000000030e+00,-3.655478218855439110e-01
1.409999999999999920e+00,-4.452623095525298780e-01
1.411000000000000032e+00,-4.713380839206300355e-01
1.411999999999999922e+00,-5.118462310090987621e-01
1.413000000000000034e+00,-5.077459952070082494e-01
1.413999999999999924e+00,-5.146027568306644762e-01
1.415000000000000036e+00,-5.474945147094213427e-01
1.415999999999999925e+00,-5.103061414548243357e-01
1.417000000000000037e+00,-5.036553760090800580e-01
1.417999999999999927e+00,-4.459210541769979552e-01
1.419000000000000039e+00,-4.306817357260444012e-01
1.419999999999999929e+00,-4.114628944062290739e-01
1.421000000000000041e+00,-3.428640176094060465e-01
1.421999999999999931e+00,-3.435612079870645763e-01
1.423000000000000043e+00,-3.065162988643665432e-01
1.423999999999999932e+00,-2.867670437800540761e-01
1.425000000000000044e+00,-2.746620165907509570e-01
1.425999999999999934e+00,-2.768034321916724161e-01
1.427000000000000046e+00,-3.133869969436152703e-01
1.427999999999999936e+00,-3.202778470241038344e-01
1.429000000000000048e+00,-3.717207651105935429e-01
1.429999999999999938e+00,-4.039329407949349693e-01
1.431000000000000050e+00,-4.464806497281594844e-01
1.431999999999999940e+00,-4.474973119881010541e-01
1.433000000000000052e+00,-4.761531796248409942e-01
1.433999999999999941e+00,-5.067059191274152496e-01
1.435000000000000053e+00,-4.494020910364709964e-01
1.435999999999999943e+00,-4.531799610601608408e-01
1.437000000000000055e+00,-4.341227142700425090e-01
1.437999999999999945e+00,-4.178761479396710943e-01
1.439000000000000057e+00,-3.927147532578442735e-01
1.439999999999999947e+00,-3.844114970740365456e-01
1.441000000000000059e+00,-3.683233960203671775e-01
1.441999999999999948e+00,-3.269543657482176235e-01
1.443000000000000060e+00,-2.618171702694370162e-01
1.443999999999999950e+00,-2.489753639037030897e-01
1.445000000000000062e+00,-2.955411412602148014e-01
1.445999999999999952e+00,-2.537585196456452197e-01
1.447000000000000064e+00,-2.440700223263207458e-01
1.447999999999999954e+00,-2.591470244158215475e-01
1.449000000000000066e+00,-3.562919451744780419e-01
1.449999999999999956e+00,-3.163865701079316417e-01
1.451000000000000068e+00,-3.399003387632382189e-01
1.451999999999999957e+00,-3.733194479298619917e-01
1.453000000000000069e+00,-3.640829581812550231e-01
1.453999999999999959e+00,-4.304366731648902045e-01
1.455000000000000071e+00,-3.929433363262361256e-01
1.455999999999999961e+00,-4.191252610326168249e-01
1.457000000000000073e+00,-4.035236562554230799e-01
1.457999999999999963e+00,-3.892971924319423849e-01
1.459000000000000075e+00,-2.883348978025524478e-01
1.459999999999999964e+00,-3.128180296501024138e-01
1.461000000000000076e+00,-2.601608030547405415e-01
1.461999999999999966e+00,-2.567125975038857533e-01
1.463000000000000078e+00,-1.744284001590893363e-01
1.463999999999999968e+00,-1.662665686640882601e-01
1.465000000000000080e+00,-1.851773239639529500e-01
1.465999999999999970e+00,-1.863493626923298507e-01
1.467000000000000082e+00,-2.050560887448842351e-01
1.467999999999999972e+00,-1.967194883319134668e-01
1.469000000000000083e+00,-2.303445336497520757e-01
1.469999999999999973e+00,-2.731001771669609446e-01
1.471000000000000085e+00,-2.880867511760158983e-01
1.471999999999999975e+00,-3.210845373499550126e-01
1.473000000000000087e+00,-3.106924884181122559e-01
1.473999999999999977e+00,-3.306636051272900390e-01
1.475000000000000089e+00,-3.016126576350482980e-01
1.475999999999999979e+00,-3.712988591721785303e-01
1.477000000000000091e+00,-3.170977535707509287e-01
1.477999999999999980e+00,-2.957246862308299251e-01
1.479000000000000092e+00,-2.261628627514213619e-01
1.479999999999999982e+00,-2.304523207685303388e-01
1.481000000000000094e+00,-1.762147375994325416e-01
1.481999999999999984e+00,-1.741809654425963971e-01
1.483000000000000096e+00,-1.248143687863787904e-01
1.483999999999999986e+00,-1.132150105621291536e-01
1.485000000000000098e+00,-6.513979667518848826e-02
1.485999999999999988e+00,-1.456969227308760884e-01
1.487000000000000099e+00,-1.400845834637525211e-01
1.487999999999999989e+00,-1.625198400779536145e-01
1.489000000000000101e+00,-1.469591357296364531e-01
1.489999999999999991e+00,-1.833328619513842073e-01
1.491000000000000103e+00,-1.979283185303271630e-01
1.491999999999999993e+00,-2.547640355097880449e-01
1.493000000000000105e+00,-2.745428087450364485e-01
1.493999999999999995e+00,-2.421210089743866811e-01
1.495000000000000107e+00,-2.676919986528206730e-01
1.495999999999999996e+00,-2.813138400424116115e-01
1.497000000000000108e+00,-2.527446301174405829e-01
1.497999999999999998e+00,-2.380468457899403700e-01
1.499000000000000110e+00,-1.775371233405017846e-01
1.500000000000000000e+00,-1.277240388378010905e-01
1.501000000000000112e+00,-1.207582103956953423e-01
1.502000000000000002e+00,-1.261836594384200538e-01
1.503000000000000114e+00,-7.045317019856069118e-02
1.504000000000000004e+00,-5.971911114435315970e-02
1.505000000000000115e+00,-1.560154835432106535e-03
1.506000000000000005e+00,-7.917128223959571387e-02
1.507000000000000117e+00,-5.131273157040339150e-02
1.508000000000000007e+00,-7.394484900641759562e-02
1.509000000000000119e+00,-8.976815572379388819e-02
1.510000000000000009e+00,-8.087990519680780810e-02
1.511000000000000121e+00,-1.390083226815194695e-01
1.512000000000000011e+00,-1.629637143284408951e-01
1.513000000000000123e+00,-2.092701963436902624e-01
1.514000000000000012e+00,-2.170548755329010926e-01
1.515000000000000124e+00,-2.087209796396494732e-01
1.516000000000000014e+00,-1.888845903554218220e-01
1.517000000000000126e+00,-1.385561024476287817e-01
1.518000000000000016e+00,-1.587176522160814451e-01
1.519000000000000128e+00,-1.165690193080599624e-01
1.520000000000000018e+00,-9.021838869709671027e-02
1.521000000000000130e+00,-3.894633525249235895e-02
1.522000000000000020e+00,-8.674313394078217443e-03
1.523000000000000131e+00,4.468136221968949107e-02
1.524000000000000021e+00,9.904709354214252803e-03
1.525000000000000133e+00,7.162263229634643902e-02
1.526000000000000023e+00,3.980970312120807320e-02
1.527000000000000135e+00,3.416229774615982262e-02
1.528000000000000025e+00,4.006627789144782958e-03
1.529000000000000137e+00,-5.833631023121760295e-02
1.530000000000000027e+00,-3.037048299289398304e-02
1.531000000000000139e+00,-4.267300537978305913e-02
1.532000000000000028e+00,-1.085410184635682423e-01
1.533000000000000140e+00,-1.039351130906368548e-01
1.534000000000000030e+00,-1.041107830719395916e-01
1.535000000000000142e+00,-1.241123944585398875e-01
1.536000000000000032e+00,-1.127884239382565545e-01
1.536999999999999922e+00,-1.011191497603010636e-01
1.538000000000000034e+00,-4.169184035021457346e-02
1.538999999999999924e+00,-1.492785646214578668e-02
1.540000000000000036e+00,1.137615101657847919e-02
1.540999999999999925e+00,4.542895083760900565e-02
1.542000000000000037e+00,7.381767968195808438e-02
1.542999999999999927e+00,1.093711431647252097e-01
1.544000000000000039e+00,1.147573578575664943e-01
1.544999999999999929e+00,1.235758598171100564e-01
1.546000000000000041e+00,1.122357577690140107e-01
1.546999999999999931e+00,1.118782458558864878e-01
1.548000000000000043e+00,1.255114603475450952e-01
1.548999999999999932e+00,4.443906258955872268e-02
1.550000000000000044e+00,5.148052756664593665e-02
1.550999999999999934e+00,-6.706339264974235659e-03
1.552000000000000046e+00,-2.344092394904873089e-02
1.552999999999999936e+00,-1.520154861296607596e-02
1.554000000000000048e+00,-3.504507083582193705e-02
1.554999999999999938e+00,-2.730110674755915900e-02
1.556000000000000050e+00,-8.605269095528500500e-04
1.556999999999999940e+00,-2.466296843608168504e-02
1.558000000000000052e+00,9.789683416892458467e-03
1.558999999999999941e+00,6.792464459315299130e-02
1.560000000000000053e+00,9.279906511269588043e-02
1.560999999999999943e+00,1.249007859723101355e-01
1.562000000000000055e+00,1.516058465290596180e-01
1.562999999999999945e+00,1.931582031677981370e-01
1.564000000000000057e+00,2.145530701469131885e-01
1.564999999999999947e+00,2.184868650392722822e-01
1.566000000000000059e+00,2.314514655354722450e-01
1.566999999999999948e+00,2.050596618530502457e-01
1.568000000000000060e+00,2.013866596774574469e-01
1.568999999999999950e+00,1.706046946120040320e-01
1.570000000000000062e+00,1.127887887801453104e-01
1.570999999999999952e+00,7.840351311125956513e-02
1.572000000000000064e+00,4.919356901770337298e-02
1.572999999999999954e+00,5.835355380453746688e-02
1.574000000000000066e+00,4.732876272246390459e-02
1.574999999999999956e+00,3.431152300768439134e-02
1.576000000000000068e+00,6.626382638944205983e-02
1.576999999999999957e+00,6.299285576563121158e-02
1.578000000000000069e+00,6.254137861766362327e-02
1.578999999999999959e+00,1.437201611623575570e-01
1.580000000000000071e+00,1.778288956224147455e-01
1.580999999999999961e+00,1.944067389651168154e-01
1.582000000000000073e+00,2.190039748406593656e-01
1.582999999999999963e+00,2.388004820929717220e-01
1.584000000000000075e+00,2.510093346798250580e-01
1.584999999999999964e+00,2.808020027101442717e-01
1.586000000000000076e+00,2.737843019376508535e-01
1.586999999999999966e+00,2.822223691126801715e-01
1.588000000000000078e+00,2.780269654091585552e-01
1.588999999999999968e+00,2.321607315822443451e-01
1.590000000000000080e+00,1.970545824360442067e-01
1.590999999999999970e+00,1.844635619780879421e-01
1.592000000000000082e+00,1.899567299323043079e-01
1.592999999999999972e+00,1.069571073819480245e-01
1.594000000000000083e+00,1.054242098244648485e-01
1.594999999999999973e+00,1.164645742233514913e-01
1.596000000000000085e+00,1.476496799750423583e-01
1.596999999999999975e+00,1.386685276935502031e-01
1.598000000000000087e+00,1.941312475106830582e-01
1.598999999999999977e+00,2.035029775808545605e-01
1.600000000000000089e+00,2.639829356121707882e-01
1.600999999999999979e+00,2.716228863410651284e-01
1.602000000000000091e+00,3.110846024836931289e-01
1.602999999999999980e+00,3.414659382698989054e-01
1.604000000000000092e+00,3.613764755762378100e-01
1.604999999999999982e+00,3.654956196089592657e-01
1.606000000000000094e+00,3.685011294465615483e-01
1.606999999999999984e+00,3.477669429732249684e-01
1.608000000000000096e+00,3.464695879142353219e-01
1.608999999999999986e+00,2.865003397330742052e-01
1.610000000000000098e+00,2.666525253789417405e-01
1.610999999999999988e+00,2.308131064783874031e-01
1.612000000000000099e+00,2.128144796881831780e-01
1.612999999999999989e+00,1.995128166221037946e-01
1.614000000000000101e+00,1.770163617341403151e-01
1.614999999999999991e+00,1.844952565709796766e-01
1.616000000000000103e+00,1.765582173327950588e-01
1.616999999999999993e+00,2.182734497413185704e-01
1.618000000000000105e+00,2.342400601669822890e-01
1.618999999999999995e+00,2.931264153442729170e-01
1.620000000000000107e+00,3.302381510898504957e-01
1.620999999999999996e+00,3.287054439259239902e-01
1.622000000000000108e+00,3.735185445099628021e-01
1.622999999999999998e+00,3.943502314727689861e-01
1.624000000000000110e+00,4.290953467639366248e-01
1.625000000000000000e+00,4.820389944128835591e-01
1.626000000000000112e+00,4.326758078097077687e-01
1.627000000000000002e+00,4.102635339627921374e-01
1.628000000000000114e+00,4.166522100111475502e-01
1.629000000000000004e+00,3.470924711920323480e-01
1.630000000000000115e+00,3.458043451285490177e-01
1.631000000000000005e+00,3.053989899509278461e-01
1.632000000000000117e+00,3.024804508386058632e-01
1.633000000000000007e+00,2.692018192290625000e-01
1.634000000000000119e+00,2.615573935938278471e-01
1.635000000000000009e+00,2.519136547398602710e-01
1.636000000000000121e+00,2.603651559035454754e-01
1.637000000000000011e+00,2.787187379694106015e-01
1.638000000000000123e+00,3.088720590530475985e-01
1.639000000000000012e+00,3.665481224919719394e-01
1.640000000000000124e+00,3.862513884933434505e-01
1.641000000000000014e+00,3.767038489505081800e-01
1.642000000000000126e+00,4.456842358795183867e-01
1.643000000000000016e+00,4.269993653638993747e-01
1.644000000000000128e+00,4.866718290164643856e-01
1.645000000000000018e+00,4.923957066478303890e-01
1.646000000000000130e+00,4.768602550257888817e-01
1.647000000000000020e+00,4.873904985340054008e-01
1.648000000000000131e+00,4.473313455048076315e-01
1.649000000000000021e+00,4.411226720162687576e-01
1.650000000000000133e+00,3.490299039126874003e-01
1.651000000000000023e+00,3.659618174938674695e-01
1.652000000000000135e+00,3.697164731997124587e-01
1.653000000000000025e+00,3.087073431394554701e-01
1.654000000000000137e+00,3.112993950363755480e-01
1.655000000000000027e+00,3.034792700545042576e-01
1.656000000000000139e+00,3.378042502367767930e-01
1.657000000000000028e+00,3.276142427867933526e-01
1.658000000000000140e+00,3.195005796699172951e-01
1.659000000000000030e+00,3.976793047844464080e-01
1.660000000000000142e+00,4.215868314542199347e-01
1.661000000000000032e+00,4.393843210689863943e-01
1.662000000000000144e+00,4.845453215087046628e-01
1.663000000000000034e+00,5.076030763036365467e-01
1.664000000000000146e+00,5.481844079731926778e-01
1.665000000000000036e+00,5.246498371865772059e-01
1.665999999999999925e+00,5.203072308504324006e-01
1.667000000000000037e+00,1.516884051075652717e+00
1.667999999999999927e+00,7.921757700766127730e-01
1.669000000000000039e+00,-6.184853269413136123e-02
1.669999999999999929e+00,4.536527301064774420e-01
1.671000000000000041e+00,4.412140913283784660e-01
1.671999999999999931e+00,3.960565064418813397e-01
1.673000000000000043e+00,3.959563884735248784e-01
1.673999999999999932e+00,3.366431105275689561e-01
1.675000000000000044e+00,3.430914844212775705e-01
1.675999999999999934e+00,3.548014786243266494e-01
1.677000000000000046e+00,4.001227914696859345e-01
1.677999999999999936e+00,4.064195189939611152e-01
1.679000000000000048e+00,4.235364844686238528e-01
1.679999999999999938e+00,4.493648407229331454e-01
1.681000000000000050e+00,4.684333198787808406e-01
1.681999999999999940e+00,5.083769271769829068e-01
1.683000000000000052e+00,5.641441095922690163e-01
1.683999999999999941e+00,5.214866272243950940e-01
1.685000000000000053e+00,5.855726208202544081e-01
1.685999999999999943e+00,5.323488715572898267e-01
1.687000000000000055e+00,5.491120190839977599e-01
1.687999999999999945e+00,5.480760797890693592e-01
1.689000000000000057e+00,4.790684244167657257e-01
1.689999999999999947e+00,4.586776027436066938e-01
1.691000000000000059e+00,4.609659603764716951e-01
1.691999999999999948e+00,4.233448638512676832e-01
1.693000000000000060e+00,4.030401851698869331e-01
1.693999999999999950e+00,3.632030074825445820e-01
1.695000000000000062e+00,4.027954379243914307e-01
1.695999999999999952e+00,3.894367546513613498e-01
1.697000000000000064e+00,3.777946632915907821e-01
1.697999999999999954e+00,4.280782501656784089e-01
1.699000000000000066e+00,4.629305565832181335e-01
1.699999999999999956e+00,4.982788629080459608e-01
1.701000000000000068e+00,5.275548707728414666e-01
1.701999999999999957e+00,5.135313496798306065e-01
1.703000000000000069e+00,5.939950413104577720e-01
1.703999999999999959e+00,5.878076332495445477e-01
1.705000000000000071e+00,5.741495806842512595e-01
1.705999999999999961e+00,5.896398780981657595e-01
1.707000000000000073e+00,5.808378988113873653e-01
1.707999999999999963e+00,5.463945604521190935e-01
1.709000000000000075e+00,5.053448212481086443e-01
1.709999999999999964e+00,4.877583819177060409e-01
1.711000000000000076e+00,4.625359208982202652e-01
1.711999999999999966e+00,4.123224652069498730e-01
1.713000000000000078e+00,3.950381023601682307e-01
1.713999999999999968e+00,3.816733022862461855e-01
1.715000000000000080e+00,3.912149196435409371e-01
1.715999999999999970e+00,3.649138362724031470e-01
1.717000000000000082e+00,4.101507109577946508e-01
1.717999999999999972e+00,4.424031766691795542e-01
1.719000000000000083e+00,4.337048159885580900e-01
1.719999999999999973e+00,5.152430699777903467e-01
1.721000000000000085e+00,5.279291237203815879e-01
1.721999999999999975e+00,5.783905603314005717e-01
1.723000000000000087e+00,5.858481584586121560e-01
1.723999999999999977e+00,5.765977004891044144e-01
1.725000000000000089e+00,6.009555656186064132e-01
1.725999999999999979e+00,6.029778715276259415e-01
1.727000000000000091e+00,6.190424560139122789e-01
1.727999999999999980e+00,5.359169745000733620e-01
1.729000000000000092e+00,5.311702866578928983e-01
1.729999999999999982e+00,5.068434222126804167e-01
1.731000000000000094e+00,4.761713070570118278e-01
1.731999999999999984e+00,4.495560865386659666e-01
1.733000000000000096e+00,4.164884696547481724e-01
1.733999999999999986e+00,3.614875544835322030e-01
1.735000000000000098e+00,4.099411587574784965e-01
1.735999999999999988e+00,3.987645366870191110e-01
1.737000000000000099e+00,3.611796045472607242e-01
1.737999999999999989e+00,4.433053331360047866e-01
1.739000000000000101e+00,4.304561953892311332e-01
1.739999999999999991e+00,4.869091012330021284e-01
1.741000000000000103e+00,5.474635214182640430e-01
1.741999999999999993e+00,5.585890121112468965e-01
1.743000000000000105e+00,5.928879025870885666e-01
1.743999999999999995e+00,5.600595877004302947e-01
1.745000000000000107e+00,5.678209711566198914e-01
1.745999999999999996e+00,5.952197809638757331e-01
1.747000000000000108e+00,5.854330666153989560e-01
1.747999999999999998e+00,5.431146464979863531e-01
1.749000000000000110e+00,5.565951363402193985e-01
1.750000000000000000e+00,5.104531992753980063e-01
1.751000000000000112e+00,4.796510478597261762e-01
1.752000000000000002e+00,3.863501924956807554e-01
1.753000000000000114e+00,4.320419235914658707e-01
1.754000000000000004e+00,4.093723224794291182e-01
1.755000000000000115e+00,3.705050335404280748e-01
1.756000000000000005e+00,3.963338473404052209e-01
1.757000000000000117e+00,3.706493463532696819e-01
1.758000000000000007e+00,4.579224152723471164e-01
1.759000000000000119e+00,4.167739571690953215e-01
1.760000000000000009e+00,4.756268469539190469e-01
1.761000000000000121e+00,4.931170853033716162e-01
1.762000000000000011e+00,5.405595261936592122e-01
1.763000000000000123e+00,5.261805840639653953e-01
1.764000000000000012e+00,5.836955498097040618e-01
1.765000000000000124e+00,5.845433198767202576e-01
1.766000000000000014e+00,5.988530992728834379e-01
1.767000000000000126e+00,5.820439795746292777e-01
1.768000000000000016e+00,5.226456071521972113e-01
1.769000000000000128e+00,5.138270247171096150e-01
1.770000000000000018e+00,4.755699086531570696e-01
1.771000000000000130e+00,4.344025032875643566e-01
1.772000000000000020e+00,4.054360718737413105e-01
1.773000000000000131e+00,3.950739295838069376e-01
1.774000000000000021e+00,3.621131287744829841e-01
1.775000000000000133e+00,3.898482907471341186e-01
1.776000000000000023e+00,3.899964528061046765e-01
1.777000000000000135e+00,3.921887060993063390e-01
1.778000000000000025e+00,4.048705141699425747e-01
1.779000000000000137e+00,4.070365885295045838e-01
1.780000000000000027e+00,4.665026786712502260e-01
1.781000000000000139e+00,5.069406172901091967e-01
1.782000000000000028e+00,5.078729513482362901e-01
1.783000000000000140e+00,5.143831115198538306e-01
1.784000000000000030e+00,5.342281550150433933e-01
1.785000000000000142e+00,5.318381604952582276e-01
1.786000000000000032e+00,5.987914153483300250e-01
1.787000000000000144e+00,5.328509625121942150e-01
1.788000000000000034e+00,5.216535819483100189e-01
1.789000000000000146e+00,5.383918969367589291e-01
1.790000000000000036e+00,4.434627279587876059e-01
1.791000000000000147e+00,4.009238684345223236e-01
1.792000000000000037e+00,3.710194210160204786e-01
1.792999999999999927e+00,3.501134219449153484e-01
1.794000000000000039e+00,3.602001640317531450e-01
1.794999999999999929e+00,3.279759968862646646e-01
1.796000000000000041e+00,3.612860226657592100e-01
1.796999999999999931e+00,3.524432318255816821e-01
1.798000000000000043e+00,3.866991604276413530e-01
1.798999999999999932e+00,4.017530907844359400e-01
1.800000000000000044e+00,4.112964454564814742e-01
1.800999999999999934e+00,4.294040343998187237e-01
1.802000000000000046e+00,4.689324896408773036e-01
1.802999999999999936e+00,4.725029368729435908e-01
1.804000000000000048e+00,5.017414775866216869e-01
1.804999999999999938e+00,5.375664508907967987e-01
1.806000000000000050e+00,5.125438497868060050e-01
1.806999999999999940e+00,4.887626582055115132e-01
1.808000000000000052e+00,4.571011681595578136e-01
1.808999999999999941e+00,4.285286970858357969e-01
1.810000000000000053e+00,4.021566491610221172e-01
1.810999999999999943e+00,3.794290760963158760e-01
1.812000000000000055e+00,3.424781723206168360e-01
1.812999999999999945e+00,3.160559768615293086e-01
1.814000000000000057e+00,3.163966297860782984e-01
1.814999999999999947e+00,3.050519297374547634e-01
1.816000000000000059e+00,2.625120234225803983e-01
1.816999999999999948e+00,3.291863036335428427e-01
1.818000000000000060e+00,2.826999389056100154e-01
1.818999999999999950e+00,3.460341129889616396e-01
1.820000000000000062e+00,3.643428181379050890e-01
1.820999999999999952e+00,3.758734332701734182e-01
1.822000000000000064e+00,4.442509957747595717e-01
1.822999999999999954e+00,4.539865214007284266e-01
1.824000000000000066e+00,4.951194157419179787e-01
1.824999999999999956e+00,4.835097606223909272e-01
1.826000000000000068e+00,4.361445558943090606e-01
1.826999999999999957e+00,4.592007190192867738e-01
1.828000000000000069e+00,4.547124129355864519e-01
1.828999999999999959e+00,3.820794326122198825e-01
1.830000000000000071e+00,3.214154173559928829e-01
1.830999999999999961e+00,2.800365848602838770e-01
1.832000000000000073e+00,2.986017192562381850e-01
1.832999999999999963e+00,2.514767200268621106e-01
1.834000000000000075e+00,2.009069211368132157e-01
1.834999999999999964e+00,2.022699630887066780e-01
1.836000000000000076e+00,2.396434162067658247e-01
1.836999999999999966e+00,2.407722517886897728e-01
1.838000000000000078e+00,2.619491197056224019e-01
1.838999999999999968e+00,2.771464000879545475e-01
1.840000000000000080e+00,3.200248474111636043e-01
1.840999999999999970e+00,3.050595787552842775e-01
1.842000000000000082e+00,3.691977066403289709e-01
1.842999999999999972e+00,3.926060757073357999e-01
1.844000000000000083e+00,3.724874214640883086e-01
1.844999999999999973e+00,3.968135877451632876e-01
1.846000000000000085e+00,3.742972418835253667e-01
1.846999999999999975e+00,3.708220809016376518e-01
1.848000000000000087e+00,3.656403924956964646e-01
1.848999999999999977e+00,3.334225012510073638e-01
1.850000000000000089e+00,2.612527416699862437e-01
1.850999999999999979e+00,2.289108180996874409e-01
1.852000000000000091e+00,2.102392587771526322e-01
1.852999999999999980e+00,2.071653585265224029e-01
1.854000000000000092e+00,1.974115976885686130e-01
1.854999999999999982e+00,1.884397225361046091e-01
1.856000000000000094e+00,1.738821579179741228e-01
1.856999999999999984e+00,1.716940121821431409e-01
1.858000000000000096e+00,2.209873379124892845e-01
1.858999999999999986e+00,2.168190118395798560e-01
1.860000000000000098e+00,2.380550307657159914e-01
1.860999999999999988e+00,2.654594848232642579e-01
1.862000000000000099e+00,3.123970065156518872e-01
1.862999999999999989e+00,2.835716293654230169e-01
1.864000000000000101e+00,3.280752522303274077e-01
1.864999999999999991e+00,3.208083500243111841e-01
1.866000000000000103e+00,3.258488457202423083e-01
1.866999999999999993e+00,2.564936834889240957e-01
1.868000000000000105e+00,2.208623439115698084e-01
1.868999999999999995e+00,2.244182117948786970e-01
1.870000000000000107e+00,1.994911782124191846e-01
1.870999999999999996e+00,1.770263035084257974e-01
1.872000000000000108e+00,1.553641048797871071e-01
1.872999999999999998e+00,1.404762654654870824e-01
1.874000000000000110e+00,5.771183387698769485e-02
1.875000000000000000e+00,9.490224576403735735e-02
1.876000000000000112e+00,7.080951996018590433e-02
1.877000000000000002e+00,9.725503786997949374e-02
1.878000000000000114e+00,1.205271866906929695e-01
1.879000000000000004e+00,1.617737541634714504e-01
1.880000000000000115e+00,1.756279855187219407e-01
1.881000000000000005e+00,1.893196105543243357e-01
1.882000000000000117e+00,2.301824826471867147e-01
1.883000000000000007e+00,2.746693657352806683e-01
1.884000000000000119e+00,2.455951344651478851e-01
1.885000000000000009e+00,2.582031812909936219e-01
1.886000000000000121e+00,2.684174142505105221e-01
1.887000000000000011e+00,2.369869062673857218e-01
1.888000000000000123e+00,2.190158939836209517e-01
1.889000000000000012e+00,1.505665225856913925e-01
1.890000000000000124e+00,1.162820686853811986e-01
1.891000000000000014e+00,1.027157280242694259e-01
1.892000000000000126e+00,7.650479713552869876e-02
1.893000000000000016e+00,3.035395072304160335e-02
1.894000000000000128e+00,2.583103796549976461e-02
1.895000000000000018e+00,-1.294129306075901542e-02
1.896000000000000130e+00,1.664938620743305897e-02
1.897000000000000020e+00,5.574875705579655782e-02
1.898000000000000131e+00,4.957418488601116752e-02
1.899000000000000021e+00,4.721375312361645454e-02
1.900000000000000133e+00,1.017226380119973794e-01
1.901000000000000023e+00,1.141692612008448349e-01
1.902000000000000135e+00,1.309950814159438759e-01
1.903000000000000025e+00,1.692225132414012512e-01
1.904000000000000137e+00,1.716840517603379079e-01
1.905000000000000027e+00,1.605829466958579865e-01
1.906000000000000139e+00,1.678599438170901847e-01
1.907000000000000028e+00,1.358417722507973824e-01
1.908000000000000140e+00,1.032153950095273803e-01
1.909000000000000030e+00,8.270862046499358189e-02
1.910000000000000142e+00,3.475437900128443974e-02
1.911000000000000032e+00,-3.474109782972793770e-04
1.912000000000000144e+00,7.738371602716766218e-03
1.913000000000000034e+00,-3.496337572169458396e-02
1.914000000000000146e+00,-5.341137138115123473e-02
1.915000000000000036e+00,-7.045029833954936926e-02
1.916000000000000147e+00,-7.705783087593091885e-02
1.917000000000000037e+00,-3.426744294403600427e-02
1.918000000000000149e+00,1.622325649508260526e-03
1.919000000000000039e+00,-4.717761286694631406e-02
1.919999999999999929e+00,1.047504796016900802e-02
1.921000000000000041e+00,4.784685210488300033e-02
1.921999999999999931e+00,7.964752270651020982e-02
1.923000000000000043e+00,8.393459612284877303e-02
1.923999999999999932e+00,1.121584186488544799e-01
1.925000000000000044e+00,8.614893421463495904e-02
1.925999999999999934e+00,7.402918067860596307e-02
1.927000000000000046e+00,7.857266540229557172e-02
1.927999999999999936e+00,2.854835975457116828e-02
1.929000000000000048e+00,-3.414354620031520571e-04
1.929999999999999938e+00,-2.985690553200107469e-02
1.931000000000000050e+00,-5.251770761983250851e-02
1.931999999999999940e+00,-9.189199305135686835e-02
1.933000000000000052e+00,-1.432756767690946120e-01
1.933999999999999941e+00,-1.404847780163292204e-01
1.935000000000000053e+00,-1.533262689400984591e-01
1.935999999999999943e+00,-1.327625521520357510e-01
1.937000000000000055e+00,-1.483745739538235298e-01
1.937999999999999945e+00,-1.531946102285241251e-01
1.939000000000000057e+00,-1.020378550709478416e-01
1.939999999999999947e+00,-4.631178902266606945e-02
1.941000000000000059e+00,-5.394027253371636021e-02
1.941999999999999948e+00,-1.731613295388744617e-02
1.943000000000000060e+00,-1.433799737744748115e-02
1.943999999999999950e+00,-1.518929994318740651e-02
1.945000000000000062e+00,2.058104727447782056e-02
1.945999999999999952e+00,4.875761828257561131e-02
1.947000000000000064e+00,-1.037372274337022837e-02
1.947999999999999954e+00,-5.772425518036852776e-02
1.949000000000000066e+00,-4.485858529030297553e-02
1.949999999999999956e+00,-8.918878246818363886e-02
1.951000000000000068e+00,-1.646843952256224486e-01
1.951999999999999957e+00,-1.850283784685656518e-01
1.953000000000000069e+00,-1.907852844762597255e-01
1.953999999999999959e+00,-2.275013492694369088e-01
1.955000000000000071e+00,-2.523803445849601701e-01
1.955999999999999961e+00,-2.335163407493446308e-01
1.957000000000000073e+00,-2.051569361891301124e-01
1.957999999999999963e+00,-2.100937640315301835e-01
1.959000000000000075e+00,-1.727862025980071714e-01
1.959999999999999964e+00,-1.577351084629915468e-01
1.961000000000000076e+00,-1.238184270450280317e-01
1.961999999999999966e+00,-1.066828010192885506e-01
1.963000000000000078e+00,-5.973546800494758391e-02
1.963999999999999968e+00,-5.872143323194509157e-02
1.965000000000000080e+00,-5.902080578615259698e-02
1.965999999999999970e+00,-8.746800980745235432e-02
1.967000000000000082e+00,-8.310743115872509801e-02
1.967999999999999972e+00,-1.177078917241153044e-01
1.969000000000000083e+00,-1.305990196173514584e-01
1.969999999999999973e+00,-1.576072025481911054e-01
1.971000000000000085e+00,-2.270252373062464635e-01
1.971999999999999975e+00,-2.751955097975824494e-01
1.973000000000000087e+00,-2.697691933477166515e-01
1.973999999999999977e+00,-2.812951462809644143e-01
1.975000000000000089e+00,-3.119145548617804353e-01
1.975999999999999979e+00,-2.982235402031637173e-01
1.977000000000000091e+00,-2.684531094401025331e-01
1.977999999999999980e+00,-2.999092378300280970e-01
1.979000000000000092e+00,-2.152864058928272428e-01
1.979999999999999982e+00,-2.305140801730320432e-01
1.981000000000000094e+00,-2.019691364198054340e-01
1.981999999999999984e+00,-1.948112406178283407e-01
1.983000000000000096e+00,-1.411470275977371736e-01
1.983999999999999986e+00,-1.409852749211469580e-01
1.985000000000000098e+00,-1.342362350901089019e-01
1.985999999999999988e+00,-1.517256596708997374e-01
1.987000000000000099e+00,-1.338782057629849809e-01
1.987999999999999989e+00,-1.973778704399836714e-01
1.989000000000000101e+00,-2.061450618981020000e-01
1.989999999999999991e+00,-2.374437176552074147e-01
1.991000000000000103e+00,-3.041625832782710037e-01
1.991999999999999993e+00,-3.607102338693063959e-01
1.993000000000000105e+00,-3.569285507743781283e-01
1.993999999999999995e+00,-3.901193474829345864e-01
1.995000000000000107e+00,-3.578977012043529360e-01
1.995999999999999996e+00,-3.902904512761992128e-01
1.997000000000000108e+00,-3.771018840313349330e-01
1.997999999999999998e+00,-3.435049809076168303e-01
1.999000000000000110e+00,-3.216047247454236757e-01
2.000000000000000000e+00,-2.419191726241735063e-01
2.000999999999999890e+00,-2.709082949649271321e-01
2.002000000000000224e+00,-2.676105698313717141e-01
2.003000000000000114e+00,-2.227493226372034285e-01
2.004000000000000004e+00,-2.063258951522317641e-01
2.004999999999999893e+00,-2.510803806475770950e-01
2.006000000000000227e+00,-2.233792696364304275e-01
2.007000000000000117e+00,-2.258800143586797426e-01
2.008000000000000007e+00,-2.881300931289458300e-01
2.008999999999999897e+00,-3.171416982257173611e-01
2.010000000000000231e+00,-3.239975068089062660e-01
2.011000000000000121e+00,-3.581444333940244640e-01
2.012000000000000011e+00,-3.913627848217818839e-01
2.012999999999999901e+00,-4.076392221724385312e-01
2.014000000000000234e+00,-4.664027149090487767e-01
2.015000000000000124e+00,-4.352136086458137099e-01
2.016000000000000014e+00,-4.306679200191823043e-01
2.016999999999999904e+00,-4.405834688627219831e-01
2.018000000000000238e+00,-4.262665818591119260e-01
2.019000000000000128e+00,-3.795528557392747748e-01
2.020000000000000018e+00,-3.705310592313820761e-01
2.020999999999999908e+00,-3.217465984987746830e-01
2.022000000000000242e+00,-3.112008611165419381e-01
2.023000000000000131e+00,-3.210179732990545709e-01
2.024000000000000021e+00,-2.668737552837087690e-01
2.024999999999999911e+00,-2.694582550484438954e-01
2.026000000000000245e+00,-2.739018304518788249e-01
2.027000000000000135e+00,-2.825638963239857082e-01
2.028000000000000025e+00,-3.049082640179983095e-01
2.028999999999999915e+00,-3.503971356982353291e-01
2.030000000000000249e+00,-3.962244736493408803e-01
2.031000000000000139e+00,-4.172104160653248295e-01
2.032000000000000028e+00,-4.416740545122840866e-01
2.032999999999999918e+00,-4.391151207829791514e-01
2.034000000000000252e+00,-4.906390869974595059e-01
2.035000000000000142e+00,-4.598299173575539633e-01
2.036000000000000032e+00,-5.178502626144203536e-01
2.036999999999999922e+00,-4.969636117086657645e-01
2.038000000000000256e+00,-4.611753746749598926e-01
2.039000000000000146e+00,-4.437807237512923497e-01
2.040000000000000036e+00,-4.025291453789270890e-01
2.040999999999999925e+00,-3.696174575633016102e-01
2.042000000000000259e+00,-3.420558027024051539e-01
2.043000000000000149e+00,-3.122843419216710936e-01
2.044000000000000039e+00,-3.068157623698040126e-01
2.044999999999999929e+00,-3.195700001738829288e-01
2.046000000000000263e+00,-3.003517693874878103e-01
2.047000000000000153e+00,-3.602410495654195244e-01
2.048000000000000043e+00,-3.468337186933079241e-01
2.048999999999999932e+00,-4.419162866486742169e-01
2.049999999999999822e+00,-3.957425555407788065e-01
2.051000000000000156e+00,-4.954629812940905542e-01
2.052000000000000046e+00,-4.830727588732574573e-01
2.052999999999999936e+00,-5.368278220099454989e-01
2.053999999999999826e+00,-5.538516893292290133e-01
2.055000000000000160e+00,-5.289157322160481511e-01
2.056000000000000050e+00,-5.695263860081384300e-01
2.056999999999999940e+00,-5.271385328286878336e-01
2.057999999999999829e+00,-4.928947780157306724e-01
2.059000000000000163e+00,-4.845700694810594067e-01
2.060000000000000053e+00,-4.619417818611571969e-01
2.060999999999999943e+00,-4.178585998756820241e-01
2.061999999999999833e+00,-3.766099651304721796e-01
2.063000000000000167e+00,-3.790671380744147778e-01
2.064000000000000057e+00,-3.193978891567798017e-01
2.064999999999999947e+00,-3.643179630249762102e-01
2.065999999999999837e+00,-3.749999992197383669e-01
2.067000000000000171e+00,-3.898591182354580464e-01
2.068000000000000060e+00,-3.914040118031058557e-01
2.068999999999999950e+00,-4.518067543430899780e-01
2.069999999999999840e+00,-4.595436729760006278e-01
2.071000000000000174e+00,-4.712590036219570511e-01
2.072000000000000064e+00,-5.315171628204083953e-01
2.072999999999999954e+00,-5.564172998230061395e-01
2.073999999999999844e+00,-5.760083873508303753e-01
2.075000000000000178e+00,-5.484647896739706097e-01
2.076000000000000068e+00,-5.788107284565850996e-01
2.076999999999999957e+00,-5.751399581629764723e-01
2.077999999999999847e+00,-5.397997300869452619e-01
2.079000000000000181e+00,-5.050863335894147932e-01
2.080000000000000071e+00,-4.505732807803828899e-01
2.080999999999999961e+00,-4.635447626055034798e-01
2.081999999999999851e+00,-4.025985447906402781e-01
2.083000000000000185e+00,-4.010476249206768040e-01
2.084000000000000075e+00,-3.787362826953149519e-01
2.084999999999999964e+00,-3.622735859386377877e-01
2.085999999999999854e+00,-3.554171753107978615e-01
2.087000000000000188e+00,-4.290619616279895965e-01
2.088000000000000078e+00,-4.139166835383411569e-01
2.088999999999999968e+00,-4.862636264361608895e-01
2.089999999999999858e+00,-4.846050902661914739e-01
2.091000000000000192e+00,-4.945108730844134381e-01
2.092000000000000082e+00,-5.488976265319802650e-01
2.092999999999999972e+00,-5.272076190265938544e-01
2.093999999999999861e+00,-5.910734523476381952e-01
2.095000000000000195e+00,-5.907156984115128351e-01
2.096000000000000085e+00,-5.843141629590704600e-01
2.096999999999999975e+00,-6.054152481046590761e-01
2.097999999999999865e+00,-5.317850003747875975e-01
2.099000000000000199e+00,-5.259489060848835384e-01
2.100000000000000089e+00,-4.756694077624670780e-01
2.100999999999999979e+00,-4.451260665785971016e-01
2.101999999999999869e+00,-4.197536307355144714e-01
2.103000000000000203e+00,-3.753118004481901249e-01
2.104000000000000092e+00,-3.985574235869722148e-01
2.104999999999999982e+00,-3.968289286870163579e-01
2.105999999999999872e+00,-4.149706877637758806e-01
2.107000000000000206e+00,-4.115590998109233678e-01
2.108000000000000096e+00,-4.490934160804962993e-01
2.108999999999999986e+00,-4.612567501361449218e-01
2.109999999999999876e+00,-5.188690687952226543e-01
2.111000000000000210e+00,-5.273383512356775160e-01
2.112000000000000099e+00,-5.431581216205052520e-01
2.112999999999999989e+00,-6.061184363851047641e-01
2.113999999999999879e+00,-5.830329324287426562e-01
2.115000000000000213e+00,-5.906698640606894424e-01
2.116000000000000103e+00,-6.020464452743590211e-01
2.116999999999999993e+00,-5.876024652027088679e-01
2.117999999999999883e+00,-5.507094422102030151e-01
2.119000000000000217e+00,-5.181664047917120541e-01
2.120000000000000107e+00,-4.958140252761799038e-01
2.120999999999999996e+00,-4.400478085062516920e-01
2.121999999999999886e+00,-4.358217298275002261e-01
2.123000000000000220e+00,-4.249695088928495124e-01
2.124000000000000110e+00,-3.732786548093964818e-01
2.125000000000000000e+00,-4.065707423483956306e-01
2.125999999999999890e+00,-3.681403280169694980e-01
2.127000000000000224e+00,-4.162712158428475417e-01
2.128000000000000114e+00,-4.542568347949810792e-01
2.129000000000000004e+00,-5.190536196521322587e-01
2.129999999999999893e+00,-4.796088989688080395e-01
2.131000000000000227e+00,-5.207097229110938530e-01
2.132000000000000117e+00,-4.892056819309486548e-01
2.133000000000000007e+00,-5.825455338109183367e-01
2.133999999999999897e+00,-5.460678398995881810e-01
2.135000000000000231e+00,-6.362670275517648966e-01
2.136000000000000121e+00,-5.833956788923503334e-01
2.137000000000000011e+00,-5.967142534715360602e-01
2.137999999999999901e+00,-5.674204430893741158e-01
2.139000000000000234e+00,-5.394707489186044702e-01
2.140000000000000124e+00,-4.858373529161342796e-01
2.141000000000000014e+00,-4.607531346774525471e-01
2.141999999999999904e+00,-4.052412976337310124e-01
2.143000000000000238e+00,-4.247532351426985819e-01
2.144000000000000128e+00,-3.506884714230733557e-01
2.145000000000000018e+00,-3.641406932353755677e-01
2.145999999999999908e+00,-3.762405955959838288e-01
2.147000000000000242e+00,-3.953248438951116883e-01
2.148000000000000131e+00,-4.380097419692540184e-01
2.149000000000000021e+00,-4.623889489078170656e-01
2.149999999999999911e+00,-4.828811382541071118e-01
2.151000000000000245e+00,-5.337917056772973901e-01
2.152000000000000135e+00,-4.945679262402381537e-01
2.153000000000000025e+00,-5.863704654749855028e-01
2.153999999999999915e+00,-6.053577048898249879e-01
2.155000000000000249e+00,-5.997735569058548766e-01
2.156000000000000139e+00,-5.544781591068558280e-01
2.157000000000000028e+00,-5.290867508238351613e-01
2.157999999999999918e+00,-5.431327639719156775e-01
2.159000000000000252e+00,-5.368917433649929016e-01
2.160000000000000142e+00,-4.259799196192996518e-01
2.161000000000000032e+00,-4.404719134721323259e-01
2.161999999999999922e+00,-3.857070868034396804e-01
2.163000000000000256e+00,-3.703595947907836750e-01
2.164000000000000146e+00,-3.416219739677013312e-01
2.165000000000000036e+00,-3.501151812956929676e-01
2.165999999999999925e+00,-3.518917521605193777e-01
2.167000000000000259e+00,-3.806538084200408179e-01
2.168000000000000149e+00,-4.047815618424329687e-01
2.169000000000000039e+00,-4.388202100935226224e-01
2.169999999999999929e+00,-4.433961163540978689e-01
2.171000000000000263e+00,-4.607176081616388696e-01
2.172000000000000153e+00,-4.856411215408227289e-01
2.173000000000000043e+00,-5.020324558523534542e-01
2.173999999999999932e+00,-5.070001328670491469e-01
2.175000000000000266e+00,-5.273853488131176048e-01
2.176000000000000156e+00,-5.132127021295559421e-01
2.177000000000000046e+00,-5.594126740806992792e-01
2.177999999999999936e+00,-5.090220073229227982e-01
2.178999999999999826e+00,-5.012724529901733117e-01
2.180000000000000160e+00,-4.073671233129144698e-01
2.181000000000000050e+00,-3.864372351351060275e-01
2.181999999999999940e+00,-3.712750935840027910e-01
2.182999999999999829e+00,-3.310828902552229724e-01
2.184000000000000163e+00,-3.069653158868763665e-01
2.185000000000000053e+00,-3.442607081327536678e-01
2.185999999999999943e+00,-3.071194093186630503e-01
2.186999999999999833e+00,-3.186077867128102592e-01
2.188000000000000167e+00,-3.706555508737858773e-01
2.189000000000000057e+00,-3.813475550340519882e-01
2.189999999999999947e+00,-4.195589692478633448e-01
2.190999999999999837e+00,-4.444991386144646062e-01
2.192000000000000171e+00,-4.572043323468256149e-01
2.193000000000000060e+00,-4.628388446784356680e-01
2.193999999999999950e+00,-4.981101356518879419e-01
2.194999999999999840e+00,-4.565090372889584192e-01
2.196000000000000174e+00,-4.808567761377746108e-01
2.197000000000000064e+00,-4.802540363114093935e-01
2.197999999999999954e+00,-4.346122467511958631e-01
2.198999999999999844e+00,-4.134165522847422780e-01
2.200000000000000178e+00,-4.173204587207289817e-01
2.201000000000000068e+00,-3.723839868111192275e-01
2.201999999999999957e+00,-3.149120342151837670e-01
2.202999999999999847e+00,-2.863036514017418543e-01
2.204000000000000181e+00,-2.699122140531008962e-01
2.205000000000000071e+00,-2.811672370527039666e-01
2.205999999999999961e+00,-2.942816825053308216e-01
2.206999999999999851e+00,-2.830968561550165630e-01
2.208000000000000185e+00,-3.050230815304894594e-01
2.209000000000000075e+00,-3.590399262741750253e-01
2.209999999999999964e+00,-3.290376576485185556e-01
2.210999999999999854e+00,-3.915090418664197158e-01
2.212000000000000188e+00,-3.936319542048521969e-01
2.213000000000000078e+00,-4.505973560546169820e-01
2.213999999999999968e+00,-4.614747280401235163e-01
2.214999999999999858e+00,-4.580687654709051371e-01
2.216000000000000192e+00,-4.181895078925655374e-01
2.217000000000000082e+00,-4.445936883891830060e-01
2.217999999999999972e+00,-4.051299202249777354e-01
2.218999999999999861e+00,-3.760185730685127181e-01
2.220000000000000195e+00,-3.062480385798903582e-01
2.221000000000000085e+00,-3.079845723906608490e-01
2.221999999999999975e+00,-2.643912233831008929e-01
2.222999999999999865e+00,-2.065127403939489570e-01
2.224000000000000199e+00,-1.995067372617099211e-01
2.225000000000000089e+00,-2.052815521454402214e-01
2.225999999999999979e+00,-1.817995528104942027e-01
2.226999999999999869e+00,-2.202256036059759836e-01
2.228000000000000203e+00,-2.153474258984102718e-01
2.229000000000000092e+00,-2.674129176509413841e-01
2.229999999999999982e+00,-3.027818563564964593e-01
2.230999999999999872e+00,-3.533107848236182180e-01
2.232000000000000206e+00,-3.360943059552595202e-01
2.233000000000000096e+00,-3.146560276084170993e-01
2.233999999999999986e+00,-3.870840926730029774e-01
2.234999999999999876e+00,-3.912155360604407939e-01
2.236000000000000210e+00,-3.675862260935483516e-01
2.237000000000000099e+00,-3.389733231011705095e-01
2.237999999999999989e+00,-2.965765842705405109e-01
2.238999999999999879e+00,-2.692371141362674414e-01
2.240000000000000213e+00,-3.103025583532147968e-01
2.241000000000000103e+00,-2.382159598837943482e-01
2.241999999999999993e+00,-1.817788242373547247e-01
2.242999999999999883e+00,-1.390369655898884282e-01
2.244000000000000217e+00,-1.207608915917304654e-01
2.245000000000000107e+00,-1.827357925334898436e-01
2.245999999999999996e+00,-1.612608905190092146e-01
2.246999999999999886e+00,-1.485878675007171745e-01
2.248000000000000220e+00,-1.523400655967704631e-01
2.249000000000000110e+00,-2.027825329802831478e-01
2.250000000000000000e+00,-2.293542922247144566e-01
2.250999999999999890e+00,-2.606149241070889189e-01
2.252000000000000224e+00,-2.866612667952559979e-01
2.253000000000000114e+00,-2.872883153571231807e-01
2.254000000000000004e+00,-2.838639489701240137e-01
2.254999999999999893e+00,-3.344382141263300690e-01
2.256000000000000227e+00,-3.078653699147589351e-01
2.257000000000000117e+00,-2.914953529776838637e-01
2.258000000000000007e+00,-2.470451252881529780e-01
2.258999999999999897e+00,-2.388968951797043050e-01
2.260000000000000231e+00,-1.971268358552630551e-01
2.261000000000000121e+00,-1.440609444052182719e-01
2.262000000000000011e+00,-1.117795670491683879e-01
2.262999999999999901e+00,-1.458246252637628027e-01
2.264000000000000234e+00,-1.006294912894795113e-01
2.265000000000000124e+00,-9.689506878445058868e-02
2.266000000000000014e+00,-6.690638132358775469e-02
2.266999999999999904e+00,-9.275558952745141528e-02
2.268000000000000238e+00,-1.182111402775629788e-01
2.269000000000000128e+00,-1.143773579764603698e-01
2.270000000000000018e+00,-1.730907018028219335e-01
2.270999999999999908e+00,-1.837450320804492887e-01
2.272000000000000242e+00,-2.070885780713425106e-01
2.273000000000000131e+00,-2.393466478763479066e-01
2.274000000000000021e+00,-2.510735765242913531e-01
2.274999999999999911e+00,-2.100694788573175542e-01
2.276000000000000245e+00,-2.037764963386349826e-01
2.277000000000000135e+00,-2.115951179429305107e-01
2.278000000000000025e+00,-1.744772725908727840e-01
2.278999999999999915e+00,-1.763505669374227369e-01
2.280000000000000249e+00,-1.196154036571520224e-01
2.281000000000000139e+00,-1.094977830441179745e-01
2.282000000000000028e+00,-5.963483851595221402e-02
2.282999999999999918e+00,-1.502100387155193284e-02
2.284000000000000252e+00,3.374003652717165458e-02
2.285000000000000142e+00,-9.562003763239818044e-03
2.286000000000000032e+00,1.857037744046441397e-02
2.286999999999999922e+00,-2.895255743722123520e-02
2.288000000000000256e+00,-6.769052473543736570e-03
2.289000000000000146e+00,-6.694905565596886987e-02
2.290000000000000036e+00,-4.970703199066801858e-02
2.290999999999999925e+00,-1.555160324678209471e-01
2.292000000000000259e+00,-9.957606570146043667e-02
2.293000000000000149e+00,-1.631468760146154717e-01
2.294000000000000039e+00,-1.269218905910290962e-01
2.294999999999999929e+00,-1.136983797588193290e-01
2.296000000000000263e+00,-1.617223193796449854e-01
2.297000000000000153e+00,-1.416954110884884044e-01
2.298000000000000043e+00,-7.999855682544616819e-02
2.298999999999999932e+00,-6.981486521199722906e-02
2.300000000000000266e+00,-2.710083485413866330e-02
2.301000000000000156e+00,6.085030265223029255e-03
2.302000000000000046e+00,1.184247296831429652e-02
2.302999999999999936e+00,4.138107070102184371e-02
2.304000000000000270e+00,5.388960542189389497e-02
2.305000000000000160e+00,6.990096497353399940e-02
2.306000000000000050e+00,9.324454191242888268e-02
2.306999999999999940e+00,1.069135064850759154e-01
2.307999999999999829e+00,4.891765025169359654e-02
2.309000000000000163e+00,1.642308601633506865e-02
2.310000000000000053e+00,3.852461332629186080e-02
2.310999999999999943e+00,-4.758324294865966947e-02
2.311999999999999833e+00,-5.475693444621787531e-02
2.313000000000000167e+00,-5.346690929200231812e-02
2.314000000000000057e+00,-9.573643065649067863e-02
2.314999999999999947e+00,-5.781340591839081305e-02
2.315999999999999837e+00,-5.474660422044642233e-02
2.317000000000000171e+00,-5.194719831330329995e-02
2.318000000000000060e+00,-2.581383703402732183e-02
2.318999999999999950e+00,2.157331542428087695e-02
2.319999999999999840e+00,2.400161473867884823e-02
2.321000000000000174e+00,7.423440554908405931e-02
2.322000000000000064e+00,1.111988628693115211e-01
2.322999999999999954e+00,1.265166688063218414e-01
2.323999999999999844e+00,1.786493449819922252e-01
2.325000000000000178e+00,1.741637224620680713e-01
2.326000000000000068e+00,1.818685207396593118e-01
2.326999999999999957e+00,1.736387792591807533e-01
2.327999999999999847e+00,1.022111952983765365e-01
